"Time (s)","X (m/s^2)","Y (m/s^2)","Z (m/s^2)"
1.955041895E-3,3.598516846E-1,4.275109863E-1,9.783954163E0
1.195304189E-2,3.960763550E-1,4.141886902E-1,9.792486420E0
2.195104188E-2,3.941304016E-1,4.326004028E-1,9.785750427E0
3.194904188E-2,3.625460815E-1,4.502636719E-1,9.787995758E0
4.194604186E-2,3.068618774E-1,4.640350342E-1,9.768386536E0
5.194404186E-2,2.219883728E-1,4.837939453E-1,9.760902100E0
6.194204185E-2,1.122665405E-1,5.054988098E-1,9.772428131E0
7.194004185E-2,4.939727783E-2,5.198689270E-1,9.781259766E0
8.193804184E-2,-1.347198486E-3,5.122348022E-1,9.784403229E0
9.193604183E-2,-7.933502197E-3,5.096900940E-1,9.786648560E0
1.019330418E-1,4.400848389E-2,5.164260864E-1,9.788444824E0
1.119310418E-1,9.190887451E-2,4.938230896E-1,9.799970856E0
1.219290418E-1,1.746867371E-1,4.748126221E-1,9.777816925E0
1.319270418E-1,2.447410583E-1,4.637356567E-1,9.764045563E0
1.419250418E-1,2.941383362E-1,4.450245667E-1,9.799970856E0
1.519220418E-1,3.353027344E-1,4.412823486E-1,9.798324280E0
1.619200418E-1,3.638932800E-1,4.429289246E-1,9.776020660E0
1.719180418E-1,3.550616455E-1,4.599934387E-1,9.795629883E0
1.819160418E-1,3.508703613E-1,4.616400146E-1,9.782307587E0
1.919140418E-1,3.019221497E-1,4.766088867E-1,9.774823151E0
2.019120418E-1,2.532733154E-1,4.914280701E-1,9.769883423E0
2.119090417E-1,1.948947144E-1,4.933740234E-1,9.775421906E0
2.219070417E-1,1.248403931E-1,4.948709106E-1,9.779613190E0
2.319050417E-1,8.337661743E-2,4.816983032E-1,9.782756653E0
2.419030417E-1,3.936813354E-2,4.541555786E-1,9.774823151E0
2.519010417E-1,3.652404785E-2,4.442761230E-1,9.796677704E0
2.618980417E-1,6.511459351E-2,4.293072510E-1,9.797126770E0
2.718960417E-1,1.374142456E-1,4.317022705E-1,9.783355408E0
2.818940417E-1,2.046244812E-1,4.417314148E-1,9.795180817E0
2.918920417E-1,2.787203979E-1,4.457730103E-1,9.798773346E0
3.018900417E-1,3.468287659E-1,4.734654236E-1,9.782008209E0
3.118880417E-1,3.826043701E-1,5.056484985E-1,9.778715057E0
3.218850419E-1,3.835025024E-1,5.114863586E-1,9.780960388E0
3.318830419E-1,3.516188049E-1,5.113366699E-1,9.776769104E0
3.418810419E-1,2.956352234E-1,5.028044128E-1,9.778565369E0
3.518790419E-1,2.466870117E-1,5.010081482E-1,9.787247314E0
3.618770419E-1,1.706451416E-1,4.854405212E-1,9.781110077E0
3.718740419E-1,1.140628052E-1,4.629872131E-1,9.774673462E0
3.818720418E-1,9.954299927E-2,4.457730103E-1,9.780960388E0
3.918700418E-1,7.170089722E-2,4.445755005E-1,9.786947937E0
4.018680418E-1,8.981323242E-2,4.466711426E-1,9.774823151E0
4.118660418E-1,9.445358276E-2,4.571493530E-1,9.775721283E0
4.218640418E-1,1.441502380E-1,4.590953064E-1,9.776769104E0
4.318610418E-1,2.047741699E-1,4.692741394E-1,9.789193268E0
4.418590418E-1,2.647993469E-1,4.758604431E-1,9.795929260E0
4.518570418E-1,2.920426941E-1,4.748126221E-1,9.792636108E0
4.618550418E-1,3.204835510E-1,4.878355408E-1,9.791588287E0
4.718530418E-1,3.336561584E-1,5.014572144E-1,9.784403229E0
4.818500418E-1,3.311114502E-1,4.890330505E-1,9.777816925E0
4.918480418E-1,2.936892700E-1,4.861889648E-1,9.782606964E0
5.018460418E-1,2.736309814E-1,4.722679138E-1,9.780211945E0
5.118440418E-1,1.947450256E-1,4.680766296E-1,9.783505096E0
5.218420418E-1,1.389111328E-1,4.561015320E-1,9.791139221E0
5.318390417E-1,1.071771240E-1,4.516108704E-1,9.779313812E0
5.418370417E-1,7.185058594E-2,4.652325439E-1,9.783205719E0
5.518350417E-1,8.158035278E-2,4.571493530E-1,9.793983307E0
5.618330417E-1,1.137634277E-1,4.659809875E-1,9.788744202E0
5.718310417E-1,1.600172424E-1,4.878355408E-1,9.780810699E0
5.818290417E-1,2.219883728E-1,4.924758911E-1,9.783355408E0
5.918260417E-1,2.671943665E-1,4.882846069E-1,9.780511322E0
6.018240417E-1,2.995271301E-1,4.842430115E-1,9.780211945E0
6.118220417E-1,3.257226562E-1,4.779560852E-1,9.782457275E0
6.218200417E-1,3.263214111E-1,4.593946838E-1,9.787097626E0
6.318180417E-1,3.085084534E-1,4.477189636E-1,9.789492645E0
6.418150419E-1,2.887495422E-1,4.388873291E-1,9.786798248E0
6.518130419E-1,2.466870117E-1,4.339476013E-1,9.789642334E0
6.618110419E-1,1.996847534E-1,4.572990417E-1,9.770482178E0
6.718090419E-1,1.730401611E-1,4.743635559E-1,9.772727509E0
6.818070419E-1,1.338217163E-1,4.827461243E-1,9.788594513E0
6.918050419E-1,1.179547119E-1,5.049000549E-1,9.781409454E0
7.018020418E-1,1.160087585E-1,5.056484985E-1,9.789792023E0
7.118000418E-1,1.272354126E-1,4.936734009E-1,9.786648560E0
7.217980418E-1,1.630110168E-1,4.839436340E-1,9.774673462E0
7.317960418E-1,1.800755310E-1,4.569996643E-1,9.779164124E0
7.417940418E-1,2.290237427E-1,4.466711426E-1,9.788444824E0
7.517910418E-1,2.607577515E-1,4.459226990E-1,9.801617432E0
7.617890418E-1,2.999761963E-1,4.472698975E-1,9.800719299E0
7.717870418E-1,3.007246399E-1,4.676275635E-1,9.781708832E0
7.817850418E-1,2.971321106E-1,4.652325439E-1,9.777367859E0
7.917830418E-1,2.740800476E-1,4.766088867E-1,9.782457275E0
8.017810418E-1,2.353106689E-1,4.830455017E-1,9.790540466E0
8.117780418E-1,1.924996948E-1,4.962181091E-1,9.788145447E0
8.217760418E-1,1.698966980E-1,5.038522339E-1,9.785001984E0
8.317740418E-1,1.540296936E-1,4.715194702E-1,9.783056030E0
8.417720417E-1,1.360670471E-1,4.689747620E-1,9.763895874E0
8.517700417E-1,1.405577087E-1,4.553530884E-1,9.773775330E0
8.617670417E-1,1.528321838E-1,4.483177185E-1,9.784552917E0
8.717650417E-1,1.960922241E-1,4.388873291E-1,9.785301361E0
8.817630417E-1,2.106120300E-1,4.695735168E-1,9.794731750E0
8.917610417E-1,2.371069336E-1,4.577481079E-1,9.780062256E0
9.017590417E-1,2.637515259E-1,4.728666687E-1,9.779463501E0
9.117574168E-1,2.725831604E-1,4.996609497E-1,9.799970856E0
9.217544168E-1,2.691403198E-1,4.947212219E-1,9.795031128E0
9.317524168E-1,2.745291138E-1,5.093907166E-1,9.776320038E0
9.417504168E-1,2.588117981E-1,5.107379150E-1,9.788893890E0
9.517484168E-1,2.465373230E-1,4.975653076E-1,9.772278442E0
9.617464168E-1,2.110610962E-1,4.779560852E-1,9.790390778E0
9.717434167E-1,1.764830017E-1,4.610412598E-1,9.778415680E0
9.817414167E-1,1.408570862E-1,4.525090027E-1,9.765392761E0
9.917394167E-1,1.395098877E-1,4.577481079E-1,9.789043579E0
1.001737417E0,1.305285645E-1,4.513114929E-1,9.798773346E0
1.011735417E0,1.526824951E-1,4.590953064E-1,9.784253540E0
1.021733417E0,1.757345581E-1,4.677772522E-1,9.778116302E0
1.031730417E0,2.076182556E-1,4.697232056E-1,9.785151672E0
1.041728417E0,2.294728088E-1,4.808001709E-1,9.773775330E0
1.051726417E0,2.707868958E-1,4.906796265E-1,9.773475952E0
1.061724417E0,2.770738220E-1,4.833448792E-1,9.771529999E0
1.071722417E0,2.730322266E-1,4.815486145E-1,9.778415680E0
1.081719417E0,2.667453003E-1,4.686753845E-1,9.783654785E0
1.091717417E0,2.582130432E-1,4.578977966E-1,9.779014435E0
1.101715417E0,2.472857666E-1,4.501139832E-1,9.778415680E0
1.111713417E0,2.134561157E-1,4.586462402E-1,9.797875214E0
1.121711417E0,2.106120300E-1,4.433779907E-1,9.873917084E0
1.131708417E0,2.685415649E-1,4.366419983E-1,1.022433838E1
1.141706417E0,1.905537415E-1,4.439767456E-1,1.010758118E1
1.151704417E0,-1.484912109E-1,2.381547546E-1,9.614506531E0
1.161702417E0,-4.343966675E-1,3.203338623E-2,9.651479645E0
1.171700417E0,-6.927593994E-1,1.676513672E-2,9.728120270E0
1.181698417E0,-8.848100281E-1,1.616638184E-2,9.814041595E0
1.191695417E0,-6.375242615E-1,2.350112915E-2,9.796078949E0
1.201693417E0,-2.544708252E-1,1.549278259E-1,9.826615448E0
1.211691417E0,9.654922485E-2,4.312532043E-1,9.919272766E0
1.221689417E0,2.019300842E-1,7.432044983E-1,9.749825134E0
1.231687417E0,5.508544922E-1,8.099656677E-1,9.696835327E0
1.241684417E0,7.056326294E-1,6.810836792E-1,1.015802628E1
1.251682417E0,5.999523926E-1,7.072792053E-1,1.005489075E1
1.261680417E0,4.921765137E-1,6.953041077E-1,9.647138672E0
1.271678417E0,4.300556946E-1,6.634204102E-1,9.742191010E0
1.281676417E0,3.444337463E-1,7.973918152E-1,9.630672913E0
1.291674417E0,9.355545044E-2,3.376977539E-1,9.871821442E0
1.301671417E0,-8.592132568E-2,-4.402345276E-1,1.020877075E1
1.311669417E0,1.146615601E-1,-7.331753540E-1,9.825417938E0
1.321667417E0,3.326083374E-1,-1.408570862E-1,1.026146118E1
1.331665417E0,6.027964783E-1,9.921368408E-1,1.161315033E1
1.341663417E0,7.878117371E-1,1.585802307E0,1.283955002E1
1.351660417E0,9.509724426E-1,1.613345032E0,1.327259949E1
1.361658417E0,5.346881104E-1,1.301693115E0,1.401939651E1
1.371656417E0,4.146377563E-2,8.904981995E-1,1.348276245E1
1.381654417E0,-4.391867065E-1,3.411405945E-1,1.218166809E1
1.391652417E0,-4.176315308E-1,-8.532257080E-1,1.293894333E1
1.401650417E0,-7.583230591E-1,-1.547182617E0,1.319880295E1
1.411647417E0,-1.475481720E0,-1.409768372E0,1.276066406E1
1.421645417E0,-2.083966370E0,-1.148860931E0,1.187465652E1
1.431643417E0,-3.124153290E0,-1.166673889E0,1.074166260E1
1.441641417E0,-4.165238342E0,-1.379082184E0,9.448202362E0
1.451639417E0,-5.145998840E0,-1.516346741E0,8.341853027E0
1.461636417E0,-6.248007202E0,-1.457519073E0,7.260651398E0
1.471634417E0,-7.883057098E0,-1.273102570E0,6.904990997E0
1.481632417E0,-8.881929932E0,-1.017733612E0,6.967411194E0
1.491630417E0,-9.446555786E0,-6.896159363E-1,7.100035400E0
1.501628417E0,-9.828411713E0,-4.370910645E-1,7.072642365E0
1.511626417E0,-1.022373962E1,-2.109114075E-1,6.860683136E0
1.521623417E0,-1.046698380E1,3.637435913E-2,6.685397644E0
1.531621417E0,-1.040710831E1,1.287322998E-1,6.548731842E0
1.541619417E0,-1.027358597E1,-4.653822327E-1,6.389013977E0
1.551617417E0,-9.808054047E0,-1.197659454E0,5.602549438E0
1.561615417E0,-9.357490997E0,-2.139351196E0,4.824168091E0
1.571612417E0,-8.926088104E0,-2.653531952E0,4.064198456E0
1.581610417E0,-8.100405121E0,-2.299817505E0,2.783910828E0
1.591608417E0,-7.272776184E0,-1.526675262E0,1.752705231E0
1.601606417E0,-6.624324646E0,-6.321354675E-1,1.082997894E0
1.611604417E0,-6.085894318E0,3.119512939E-1,4.468208313E-1
1.621601417E0,-5.788762207E0,1.501677246E0,-2.691403198E-1
1.631599417E0,-5.735922089E0,2.730621643E0,-1.044827271E0
1.641597417E0,-5.726042633E0,3.553610229E0,-1.605411530E0
1.651595417E0,-5.842650146E0,3.651806030E0,-1.941911774E0
1.661593417E0,-6.216123505E0,3.190764771E0,-1.803300018E0
1.671591417E0,-6.708449707E0,2.585273895E0,-1.618733826E0
1.681588417E0,-7.248676300E0,2.263892212E0,-1.687740326E0
1.691586417E0,-7.804620209E0,2.728376312E0,-1.734443207E0
1.701584417E0,-8.014483795E0,3.811972961E0,-1.806593170E0
1.711582417E0,-7.738158417E0,4.660109253E0,-1.938917999E0
1.721580417E0,-7.288493500E0,5.137616272E0,-2.064955902E0
1.731577417E0,-6.686595154E0,5.461842041E0,-2.147284698E0
1.741575417E0,-6.148015137E0,5.933810577E0,-2.077679443E0
1.751573417E0,-5.997128906E0,6.349945221E0,-1.905537415E0
1.761571417E0,-6.226901093E0,6.482120361E0,-2.231260071E0
1.771569417E0,-6.790329437E0,6.346053314E0,-3.010389862E0
1.781567417E0,-7.376510468E0,6.092181244E0,-3.847149811E0
1.791564417E0,-7.388036499E0,5.747448120E0,-4.299509125E0
1.801562417E0,-7.144492950E0,5.796396332E0,-4.530778198E0
1.811560417E0,-6.854845276E0,5.798042908E0,-4.532724152E0
1.821558417E0,-6.738088074E0,5.259911957E0,-4.218677216E0
1.831556417E0,-7.215445404E0,4.657863922E0,-3.739673309E0
1.841553417E0,-8.332272949E0,4.216880951E0,-3.661386108E0
1.851551417E0,-9.462273102E0,4.297563171E0,-3.797752533E0
1.861549417E0,-1.036474640E1,4.614154816E0,-4.254452820E0
1.871547417E0,-1.090332642E1,5.004093933E0,-4.647086334E0
1.881545417E0,-1.061532532E1,5.345533905E0,-5.345683594E0
1.891543417E0,-1.018931122E1,5.037773895E0,-6.127208405E0
1.901540417E0,-9.661658478E0,4.576133881E0,-7.002138977E0
1.911537834E0,-9.778715057E0,4.342769165E0,-7.574997711E0
1.921535834E0,-1.056832306E1,4.110003204E0,-7.768395538E0
1.931533833E0,-1.122321121E1,4.280348969E0,-7.659422150E0
1.941531833E0,-1.140762772E1,4.723577271E0,-7.349267120E0
1.951528833E0,-1.108639572E1,5.362748108E0,-6.832242279E0
1.961526833E0,-1.050335815E1,6.246510315E0,-6.412515106E0
1.971524833E0,-9.996362457E0,6.919959869E0,-6.148164825E0
1.981522833E0,-9.497000885E0,6.853049011E0,-5.747897186E0
1.991520833E0,-8.601862335E0,6.456074524E0,-5.609135742E0
2.001517833E0,-7.745193787E0,6.043532410E0,-5.924380188E0
2.011515833E0,-7.381899261E0,5.708978119E0,-6.159990234E0
2.021513833E0,-7.346872101E0,5.701793060E0,-6.425238647E0
2.031511833E0,-6.809489594E0,5.763913879E0,-6.587800598E0
2.041509833E0,-6.171665955E0,5.635031891E0,-6.412066040E0
2.051507833E0,-5.658233643E0,5.703140259E0,-6.067632294E0
2.061504833E0,-5.044060822E0,6.082301788E0,-5.467979279E0
2.071502833E0,-4.279450836E0,6.497687988E0,-4.783452759E0
2.081500833E0,-3.639830933E0,6.804849243E0,-4.195325775E0
2.091498833E0,-3.279530182E0,6.881340179E0,-3.470532990E0
2.101496833E0,-3.089724884E0,6.904392242E0,-2.930905151E0
2.111493833E0,-2.971021729E0,6.971452789E0,-2.561174011E0
2.121491833E0,-2.652633820E0,6.890920258E0,-2.336191864E0
2.131489833E0,-2.130369873E0,6.432423706E0,-2.432591400E0
2.141487833E0,-1.730102234E0,6.032904510E0,-2.634371796E0
2.151485833E0,-1.734143829E0,5.904321899E0,-2.981649628E0
2.161483833E0,-2.255359955E0,6.134842529E0,-3.448678436E0
2.171480834E0,-2.593955841E0,6.394851837E0,-3.413651276E0
2.181478834E0,-2.432890778E0,6.727160797E0,-3.093467102E0
2.191476834E0,-1.722617798E0,7.030430145E0,-2.326162720E0
2.201474834E0,-1.128952332E0,7.058721313E0,-1.463806000E0
2.211472834E0,-8.428971863E-1,6.762038269E0,-7.937992859E-1
2.221469834E0,-4.227209473E-1,6.262227631E0,-3.863465881E-1
2.231467834E0,-7.214996338E-2,5.808072052E0,-5.876779175E-1
2.241465834E0,-1.621128845E-1,5.701942749E0,-6.212081909E-1
2.251463833E0,-9.148974609E-1,6.411018219E0,-6.920109558E-1
2.261461833E0,-1.100661163E0,7.172484741E0,-2.306703186E-1
2.271458833E0,-5.944139099E-1,7.510481873E0,4.324507141E-1
2.281456833E0,5.269042969E-2,7.560028839E0,8.054750061E-1
2.291454833E0,6.911128235E-1,7.471413116E0,8.086184692E-1
2.301452833E0,1.241967316E0,7.353458405E0,4.628375244E-1
2.311450833E0,1.355581055E0,7.103927307E0,-3.592529297E-3
2.321447833E0,8.249345398E-1,6.932833099E0,-1.344204712E-1
2.331445833E0,1.850152588E-1,7.088060303E0,2.058219910E-1
2.341443833E0,9.205856323E-2,7.463180237E0,1.108444977E0
2.351441833E0,4.412823486E-1,7.746391296E0,2.307451630E0
2.361439833E0,9.602531433E-1,7.849077759E0,3.173101501E0
2.371437833E0,1.448537750E0,7.657176819E0,3.440595245E0
2.381434833E0,1.485959930E0,7.355104980E0,3.508254547E0
2.391432833E0,5.731581116E-1,7.579787750E0,3.069965973E0
2.401430833E0,-1.718426514E-1,8.338410187E0,2.227667542E0
2.411428833E0,2.625540161E-1,8.778944092E0,1.852248230E0
2.421426833E0,1.444196777E0,9.132658539E0,1.899549866E0
2.431423833E0,2.434836731E0,9.225914612E0,2.723286896E0
2.441421833E0,2.393822021E0,9.085955658E0,3.705843658E0
2.451419833E0,1.400038605E0,8.788524170E0,4.534670105E0
2.461417833E0,4.463717651E-1,8.610544281E0,5.101541290E0
2.471415833E0,2.567161560E-1,8.629704437E0,5.353317719E0
2.481412834E0,6.884184265E-1,8.678353271E0,5.369783478E0
2.491410834E0,7.583230591E-1,8.963659973E0,5.445376282E0
2.501408834E0,2.496807861E-1,9.136550446E0,5.748196564E0
2.511406834E0,-3.439846802E-1,9.260642395E0,6.362219696E0
2.521404834E0,-4.855902100E-1,9.408085785E0,6.745572510E0
2.531402834E0,-4.788542175E-1,9.640402679E0,6.891369324E0
2.541399834E0,-2.594105530E-1,9.980196075E0,6.897805939E0
2.551397834E0,-2.215393066E-2,9.963281250E0,6.442901917E0
2.561395834E0,-1.907034302E-1,9.461225281E0,6.030210114E0
2.571393833E0,-3.004252625E-1,8.829538879E0,5.656587067E0
2.581391833E0,-4.846920776E-1,8.428073730E0,5.327571259E0
2.591388833E0,-7.370672607E-1,8.552465057E0,5.328469391E0
2.601386833E0,-8.247848511E-1,8.891060944E0,5.534740448E0
2.611384833E0,-9.797126770E-1,9.176816711E0,6.187233582E0
2.621382833E0,-1.158441010E0,9.380393372E0,6.919959869E0
2.631380833E0,-1.015937347E0,9.320517883E0,7.082671509E0
2.641377833E0,-4.572990417E-1,9.069938965E0,6.834188232E0
2.651375833E0,-2.083666992E-1,8.796906738E0,6.313421173E0
2.661373833E0,-3.119512939E-1,8.653954010E0,5.680088196E0
2.671371833E0,-1.365161133E-1,8.538394318E0,5.311255188E0
2.681369833E0,9.086105347E-2,8.328830109E0,5.191803589E0
2.691367833E0,-2.529739380E-2,7.949518890E0,5.231770477E0
2.701364833E0,-3.299139404E-1,7.617060242E0,5.224884796E0
2.711362833E0,-6.313870239E-1,7.716154175E0,5.228926392E0
2.721360833E0,-9.906399536E-1,8.172255707E0,5.544470215E0
2.731358833E0,-6.665638733E-1,8.574020233E0,5.933211823E0
2.741356833E0,5.912704468E-2,8.713081055E0,6.132447510E0
2.751353833E0,8.008346558E-2,8.738977203E0,6.370602264E0
2.761351833E0,-7.394622803E-2,8.738977203E0,6.489754486E0
2.771349833E0,-8.726852417E-2,8.593629456E0,6.248456268E0
2.781347833E0,8.831634521E-3,8.397537231E0,5.788762207E0
2.791345833E0,-4.041595459E-3,8.205785980E0,5.238057404E0
2.801342834E0,-1.302291870E-2,8.163274384E0,5.064418488E0
2.811340834E0,1.568737793E-1,8.352181549E0,5.155279541E0
2.821338834E0,6.674620056E-1,8.536298676E0,5.390889587E0
2.831336834E0,1.167871399E0,8.636440430E0,5.651497650E0
2.841334834E0,7.364685059E-1,8.693471832E0,5.725294189E0
2.851331834E0,4.565505981E-2,8.508007507E0,5.851332092E0
2.861329834E0,-3.350033569E-1,8.242459717E0,5.719755707E0
2.871327834E0,-2.371069336E-1,7.779322815E0,5.298980713E0
2.881325833E0,-2.097138977E-1,7.519463196E0,4.746479645E0
2.891323833E0,-5.149291992E-1,7.495962067E0,4.339625702E0
2.901321833E0,-7.330256653E-1,7.132068787E0,4.218677216E0
2.911318917E0,-1.105301514E0,6.521937561E0,3.338357849E0
2.921316917E0,-7.149133301E-1,8.434959412E0,3.326233063E0
2.931314917E0,3.362008667E0,1.910207703E1,5.270240479E0
2.941312917E0,4.213288422E0,1.557391388E1,2.346984421E1
2.951310917E0,-3.292104034E0,-2.797981567E0,8.950786743E0
2.961307917E0,-4.902305603E-1,7.038663025E0,4.177512817E0
2.971305917E0,6.442602539E-1,1.144819336E1,2.784060516E0
2.981303917E0,-2.139351196E0,8.276588745E0,3.219055939E0
2.991301917E0,-1.895059204E-1,7.869435425E0,7.103478241E0
3.001299917E0,1.288819885E0,6.968459015E0,6.794670410E0
3.011296917E0,5.739065552E-1,8.252189484E0,5.345683594E0
3.021294917E0,-8.288264465E-1,8.584348755E0,4.780608673E0
3.031292917E0,-6.511459351E-1,8.257877655E0,5.032385101E0
3.041290917E0,4.933740234E-1,8.048612823E0,5.596262512E0
3.051288917E0,8.071215820E-1,7.872728577E0,5.933960266E0
3.061285917E0,5.448669434E-2,7.890840912E0,5.938301239E0
3.071283917E0,-7.011419678E-1,7.854616241E0,5.635331268E0
3.081281917E0,-4.314028931E-1,8.186476135E0,5.426665192E0
3.091279917E0,1.607656860E-1,8.270451508E0,5.227279816E0
3.101277917E0,2.119592285E-1,8.163124695E0,5.385201416E0
3.111275917E0,-1.478924561E-1,8.048912201E0,5.648204498E0
3.121272917E0,-2.186952209E-1,7.966882782E0,5.566025391E0
3.131270917E0,2.082170105E-1,8.069868622E0,5.562582550E0
3.141268917E0,3.764671326E-1,7.582182770E0,6.234684906E0
3.151266917E0,-2.155517578E-2,7.398215332E0,6.605763245E0
3.161264917E0,-9.593550110E-1,8.615184631E0,4.477039948E0
3.171261917E0,-3.876937866E-2,9.068142700E0,3.978576508E0
3.181259917E0,9.312135315E-1,8.861871643E0,4.852309570E0
3.191257917E0,1.712438965E-1,7.947572937E0,5.464087372E0
3.201255917E0,-6.854246521E-1,7.585625610E0,6.271807709E0
3.211253917E0,-2.377056885E-1,7.328161011E0,6.427783356E0
3.221250917E0,5.914201355E-1,7.795040131E0,6.004313965E0
3.231248917E0,2.817141724E-1,8.644373932E0,4.969815216E0
3.241246917E0,-5.384303284E-1,8.821156311E0,4.062252502E0
3.251244917E0,-3.388952637E-1,8.575068054E0,4.858446808E0
3.261242917E0,3.302133179E-1,7.730524292E0,6.067931671E0
3.271239917E0,3.201841736E-1,7.355254669E0,6.575077057E0
3.281237917E0,-1.767823792E-1,7.736062775E0,6.042185211E0
3.291235917E0,-2.266287231E-1,8.193361816E0,5.081632690E0
3.301233917E0,2.261796570E-1,8.616681519E0,4.886139221E0
3.311231917E0,1.413061523E-1,8.544531555E0,4.948559418E0
3.321229917E0,-2.549198914E-1,8.119415588E0,5.217999115E0
3.331226917E0,-1.694476318E-1,7.814799042E0,5.922284546E0
3.341224917E0,2.085163879E-1,7.511679382E0,6.244714050E0
3.351222917E0,2.709365845E-1,7.815248108E0,6.040538635E0
3.361220917E0,-2.281256104E-1,8.354576569E0,5.147346039E0
3.371218917E0,-3.635939026E-1,8.627608795E0,4.513264618E0
3.381215917E0,1.354682922E-1,8.486452332E0,5.033432922E0
3.391213917E0,3.089575195E-1,7.902366943E0,5.805377655E0
3.401211917E0,-9.445358276E-2,7.617359619E0,6.195915527E0
3.411209917E0,-3.222798157E-1,7.752977600E0,5.959557037E0
