"Time (s)","X (rad/s)","Y (rad/s)","Z (rad/s)"
1.493191667E-2,-7.008273602E-1,-6.078824401E-1,5.122108012E-2
2.498291667E-2,-8.438960910E-1,-4.888708889E-1,-8.626540191E-3
3.503391667E-2,-9.528577328E-1,-4.346097708E-1,-1.076239645E-1
4.508541667E-2,-1.096061945E0,-3.736180663E-1,-2.551697493E-1
5.513541667E-2,-1.265591860E0,-2.838383615E-1,-3.881989121E-1
6.518641667E-2,-1.414857507E0,-2.686809190E-2,-3.960853219E-1
7.523741667E-2,-1.665107012E0,6.796211600E-1,-2.479871958E-1
8.528841667E-2,-2.076367855E0,9.148211479E-1,-1.212537587E-1
9.533841667E-2,-2.414369583E0,8.858049512E-1,-1.274570525E-1
1.053894167E-1,-2.577663183E0,8.309326768E-1,-2.408927977E-1
1.154404167E-1,-2.626430750E0,6.606000662E-1,-3.978720307E-1
1.254914167E-1,-2.585458517E0,3.881237805E-1,-5.461749434E-1
1.355414167E-1,-2.467466354E0,2.131972313E-1,-6.886377931E-1
1.455924167E-1,-2.335684538E0,7.359380275E-2,-7.705009580E-1
1.556434167E-1,-2.246077061E0,-4.939888138E-3,-8.035510778E-1
1.656944167E-1,-2.147457600E0,2.552001551E-2,-7.940641046E-1
1.757454167E-1,-2.010792971E0,2.413034439E-1,-7.764933705E-1
1.857954167E-1,-1.675167084E0,4.492787421E-1,-8.358600140E-1
1.958464167E-1,-1.107356906E0,8.019689322E-1,-9.343828559E-1
2.058974167E-1,-4.242471457E-1,1.272838354E0,-9.458722472E-1
2.159484167E-1,2.015837133E-1,2.071116447E0,-8.131813407E-1
2.259984167E-1,6.263038516E-1,2.908773661E0,-6.411848068E-1
2.360494167E-1,8.307936192E-1,3.411184311E0,-6.098647118E-1
2.461004167E-1,9.423632622E-1,3.444782495E0,-7.323018909E-1
2.561514167E-1,9.699602723E-1,3.355829477E0,-8.211843967E-1
2.662024167E-1,7.828050256E-1,3.398672342E0,-7.845185399E-1
2.762524167E-1,5.524812937E-1,3.519341469E0,-6.500717402E-1
2.863034167E-1,3.587778807E-1,3.561845541E0,-4.381571412E-1
2.963544167E-1,2.733100951E-1,3.381938457E0,-2.983361185E-1
3.064054167E-1,2.722411156E-1,2.866098166E0,-1.886045635E-1
3.164554167E-1,3.832576573E-1,1.064420938E0,1.763516106E-3
3.265064167E-1,2.006825060E-1,-6.777089238E-1,2.157564908E-1
3.365574167E-1,-3.259621263E-1,-1.417117000E0,4.363229573E-1
3.466084167E-1,-5.157980919E-1,-1.831619143E0,5.824139118E-1
3.566584167E-1,-3.622879088E-1,-1.685758352E0,7.241273522E-1
3.667094167E-1,-2.714490891E-1,-1.186488628E0,9.725515246E-1
3.767604167E-1,-3.493779600E-1,-5.136840343E-1,1.184520483E0
3.868114167E-1,-4.612150192E-1,1.725355536E-1,1.254457474E0
3.968624167E-1,-5.057803392E-1,4.868719280E-1,1.136996388E0
4.069124167E-1,-5.157813430E-1,6.699743867E-1,1.004108429E0
4.169634167E-1,-5.134992599E-1,7.659839988E-1,9.562397003E-1
4.270144167E-1,-3.898420334E-1,6.734058857E-1,7.841022611E-1
4.370654167E-1,-5.586645752E-2,6.467663050E-1,5.638806820E-1
4.471154167E-1,2.788835764E-1,7.720640302E-1,3.504623771E-1
4.571664167E-1,4.743726254E-1,9.028137922E-1,1.611060351E-1
4.672174167E-1,4.423811436E-1,1.120661378E0,-7.494457811E-2
4.772684167E-1,2.859814167E-1,1.223721385E0,-3.580133021E-1
4.873194167E-1,1.422146708E-1,1.463674664E0,-6.398161650E-1
4.973694167E-1,5.050498992E-2,1.727849245E0,-7.500809431E-1
5.074204167E-1,-4.835953936E-2,1.832171917E0,-7.286208868E-1
5.174714167E-1,-2.008910179E-1,1.872788668E0,-6.263776422E-1
5.275224167E-1,-3.503833115E-1,1.853258371E0,-5.451677442E-1
5.375724167E-1,-5.548480153E-1,1.752678156E0,-4.326430559E-1
5.476234167E-1,-7.267193794E-1,1.454423308E0,-3.398635983E-1
5.576744167E-1,-7.508563995E-1,1.222497940E0,-2.489741594E-1
5.677254167E-1,-6.550931334E-1,1.108387947E0,-9.485117346E-2
5.777754167E-1,-5.971664786E-1,1.117540121E0,9.137595445E-2
5.878264167E-1,-5.713830590E-1,1.139539719E0,2.088306844E-1
5.978774167E-1,-4.954355657E-1,1.206818819E0,3.120345473E-1
6.079284167E-1,-3.696134686E-1,1.226405382E0,4.968576729E-1
6.179794167E-1,-2.459905893E-1,1.236008406E0,8.277122974E-1
6.280294167E-1,-1.021790951E-1,1.108970284E0,1.253816485E0
6.380804167E-1,-1.354270335E-2,9.136373997E-1,1.642119169E0
6.481314167E-1,-1.402793080E-2,7.465754151E-1,1.968661666E0
6.581824167E-1,-1.339564621E-1,5.578816533E-1,2.178415775E0
6.682324167E-1,-5.225920677E-1,2.764803469E-1,2.084163189E0
6.782834167E-1,-9.752860665E-1,-1.678321362E-1,1.898492932E0
6.883344167E-1,-1.489359498E0,-5.995028019E-1,1.832823157E0
6.983854167E-1,-1.972088575E0,-8.191891313E-1,1.853999734E0
7.084354167E-1,-2.191758633E0,-7.190723419E-1,1.816372275E0
7.184864167E-1,-1.897506475E0,-3.162018955E-1,1.702841401E0
7.285374167E-1,-1.287906170E0,6.585785002E-2,1.529160142E0
7.385884167E-1,-7.342505455E-1,-3.509148657E-1,1.300887823E0
7.486394167E-1,-7.112842202E-1,-5.944598317E-1,1.682413340E0
7.586894167E-1,-8.258709908E-1,-7.923185825E-1,1.955480576E0
7.687404167E-1,-7.010270953E-1,-9.715623856E-1,1.698123336E0
7.787914167E-1,-5.907072425E-1,-1.316089988E0,1.670014739E0
7.888424167E-1,-5.631698966E-1,-1.277225733E0,1.645548820E0
7.988924167E-1,-5.787912011E-1,-9.348571301E-1,1.585721731E0
8.089434167E-1,-5.339081287E-1,-8.470295072E-1,1.368323922E0
8.189944167E-1,-5.335890651E-1,-8.454907537E-1,1.103567839E0
8.290454167E-1,-5.838120580E-1,-7.418631315E-1,8.710307479E-1
8.390954167E-1,-6.776139140E-1,-6.477664709E-1,6.487678885E-1
8.491464167E-1,-7.762363553E-1,-5.712349415E-1,4.409227669E-1
8.591974167E-1,-8.736507893E-1,-5.216436982E-1,1.454743445E-1
8.692484167E-1,-9.139052629E-1,-5.120393038E-1,-1.426421404E-1
8.792994167E-1,-9.094716311E-1,-4.812382460E-1,-3.894226253E-1
8.893494167E-1,-8.363271356E-1,-4.254327714E-1,-7.100416422E-1
8.994004167E-1,-6.795420051E-1,-3.446729481E-1,-1.061901689E0
9.094514167E-1,-4.935721457E-1,-1.262806952E-1,-1.289334059E0
9.195024167E-1,-3.118841350E-1,2.048777938E-1,-1.399039745E0
9.295524167E-1,-1.616719812E-1,6.681365371E-1,-1.389353871E0
9.396034167E-1,-1.406681351E-2,8.332658410E-1,-1.359349847E0
9.496544167E-1,1.111174673E-1,6.564279795E-1,-1.484037995E0
9.597054167E-1,1.953505874E-1,7.275468707E-1,-1.617719293E0
9.697564167E-1,2.808087766E-1,9.281619787E-1,-1.611677170E0
9.798064167E-1,4.111955464E-1,1.182225347E0,-1.545066714E0
9.898574167E-1,5.150649548E-1,1.496554494E0,-1.525938034E0
9.999084167E-1,4.857885540E-1,1.793478847E0,-1.606283426E0
1.009959417E0,3.992792070E-1,2.179134369E0,-1.758853316E0
1.020009417E0,3.420311213E-1,2.464020491E0,-2.095595837E0
1.030060417E0,4.540228844E-1,2.874527931E0,-2.515264988E0
1.040111542E0,5.622884035E-1,3.073081493E0,-2.620447397E0
1.050162542E0,5.274084210E-1,3.262299776E0,-2.496738911E0
1.060212542E0,4.981618524E-1,3.523034573E0,-2.400878668E0
1.070263542E0,3.755491376E-1,3.653696537E0,-2.272340775E0
1.080314542E0,1.572564691E-1,3.525692701E0,-1.925145626E0
1.090365542E0,1.880378462E-2,3.129254103E0,-1.449505568E0
1.100416542E0,3.874872997E-2,2.427407980E0,-9.513671398E-1
1.110466542E0,1.466072798E-1,1.770493150E0,-4.586099386E-1
1.120517542E0,3.143230379E-1,1.239855886E0,-5.971502513E-2
1.130568542E0,5.190231800E-1,9.394841790E-1,1.656704247E-1
1.140619542E0,7.633714080E-1,8.660456538E-1,1.847889870E-1
1.150669542E0,1.036614776E0,8.641039133E-1,6.620242447E-2
1.160720542E0,1.361645818E0,9.416565299E-1,-8.151672781E-2
1.170771542E0,1.751718283E0,9.880722165E-1,-1.944094598E-1
1.180822542E0,2.185299397E0,9.258591533E-1,-2.439306676E-1
1.190872542E0,2.549634218E0,8.007638454E-1,-2.969994843E-1
1.200923542E0,2.778036356E0,6.640810966E-1,-3.029332757E-1
1.210974542E0,2.849889040E0,2.918515801E-1,-2.787312567E-1
1.221025542E0,2.764966488E0,-1.066886261E-1,-2.721519172E-1
1.231076542E0,2.524601698E0,-4.514830410E-1,-2.948212922E-1
1.241126542E0,2.204172373E0,-6.039694548E-1,-3.412891924E-1
1.251177542E0,1.841263533E0,-9.290128350E-1,-3.922402561E-1
1.261228542E0,1.434590578E0,-1.107766628E0,-3.579666913E-1
1.271279542E0,1.007963419E0,-1.243741274E0,-2.904100120E-1
1.281329542E0,6.795614958E-1,-1.275678992E0,-5.017877817E-1
1.291380542E0,4.734783471E-1,-1.179857135E0,-9.234836102E-1
1.301431542E0,3.689886928E-1,-1.019315362E0,-1.271241307E0
1.311482542E0,3.682115674E-1,-1.076167226E0,-1.422362685E0
1.321532542E0,3.987402022E-1,-1.481467485E0,-1.408901930E0
1.331583542E0,3.736042082E-1,-2.083739042E0,-1.344409823E0
1.341634542E0,2.232623845E-1,-2.690002680E0,-1.441364765E0
1.351685542E0,7.313519716E-2,-2.869772673E0,-1.726132154E0
1.361736542E0,-5.253244564E-2,-2.875640392E0,-2.051051617E0
1.371786542E0,-1.904754043E-1,-2.851646423E0,-2.245575905E0
1.381837542E0,-3.709178865E-1,-2.810483217E0,-2.277290821E0
1.391888542E0,-5.984753966E-1,-2.721611977E0,-2.129606962E0
1.401939542E0,-8.467443585E-1,-2.652101517E0,-1.868854642E0
1.411989542E0,-1.131034374E0,-2.547792912E0,-1.611724615E0
1.422040542E0,-1.338291407E0,-2.510837555E0,-1.452170849E0
1.432091542E0,-1.425333381E0,-2.588186979E0,-1.371445894E0
1.442142542E0,-1.452864528E0,-2.777311563E0,-1.342126966E0
1.452193542E0,-1.451235771E0,-2.865751743E0,-1.353074908E0
1.462243542E0,-1.436102629E0,-2.999521017E0,-1.461784124E0
1.472294542E0,-1.389330029E0,-3.126125813E0,-1.615135074E0
1.482345542E0,-1.371706605E0,-3.196836948E0,-1.740907311E0
1.492396542E0,-1.423276067E0,-3.209073544E0,-1.943564773E0
1.502446542E0,-1.559981108E0,-3.219039202E0,-2.002928257E0
1.512497542E0,-1.773756027E0,-2.906265259E0,-1.983661413E0
1.522548542E0,-1.968158841E0,-2.467647552E0,-2.006256342E0
1.532599542E0,-2.081789970E0,-2.052129984E0,-2.117814541E0
1.542649542E0,-2.099342823E0,-1.687365055E0,-2.293805599E0
1.552700542E0,-2.042400122E0,-1.327953815E0,-2.456401348E0
1.562751542E0,-1.915130496E0,-1.048708916E0,-2.562928915E0
1.572802542E0,-1.767579079E0,-8.470918536E-1,-2.646455765E0
1.582853542E0,-1.608685613E0,-7.124890089E-1,-2.733206034E0
1.592903542E0,-1.386377454E0,-6.536238194E-1,-2.781106949E0
1.602954542E0,-1.114609003E0,-7.068849206E-1,-2.774500847E0
1.613005542E0,-8.271229863E-1,-7.935039997E-1,-2.665138483E0
1.623056542E0,-5.200668573E-1,-8.959033489E-1,-2.479809761E0
1.633106542E0,-2.531678081E-1,-9.137251973E-1,-2.218421221E0
1.643157542E0,-9.926080704E-2,-8.962649703E-1,-1.904228926E0
1.653208542E0,-7.209070027E-2,-8.687419891E-1,-1.609798312E0
1.663259542E0,-1.141646504E-1,-8.285330534E-1,-1.375667810E0
1.673310542E0,-1.565352827E-1,-7.875853777E-1,-1.177046895E0
1.683360542E0,-1.691477448E-1,-7.773337960E-1,-9.881443381E-1
1.693411542E0,-1.523360014E-1,-7.971658111E-1,-7.939130664E-1
1.703462542E0,-1.177402139E-1,-8.199539781E-1,-5.858866572E-1
1.713513542E0,-7.800585032E-2,-8.376767635E-1,-3.650525808E-1
1.723563542E0,-6.316218525E-2,-8.325001001E-1,-1.396298259E-1
1.733614542E0,-5.386748910E-2,-8.163363338E-1,6.242393330E-2
1.743665542E0,-4.476640373E-2,-7.945839167E-1,2.295157164E-1
1.753716542E0,-7.916006446E-2,-6.696957350E-1,3.955661952E-1
1.763766542E0,-1.012789458E-1,-6.498820782E-1,5.743775368E-1
1.773817542E0,-1.149966270E-1,-6.595203280E-1,7.528905272E-1
1.783868542E0,-1.503908336E-1,-6.857221127E-1,9.375610352E-1
1.793919542E0,-2.099878490E-1,-6.994571090E-1,1.125567675E0
1.803970542E0,-2.489195317E-1,-6.848736405E-1,1.322500229E0
1.814020542E0,-2.696823478E-1,-6.472293139E-1,1.529266238E0
1.824071542E0,-2.756344974E-1,-6.193494797E-1,1.770451665E0
1.834122542E0,-2.789538801E-1,-5.757716298E-1,2.047053576E0
1.844173542E0,-2.627967298E-1,-5.300822258E-1,2.339876413E0
1.854223542E0,-2.343525738E-1,-4.791322351E-1,2.601307631E0
1.864274542E0,-1.967037320E-1,-4.246303737E-1,2.827883005E0
1.874325542E0,-1.508427709E-1,-3.679029047E-1,3.026866198E0
1.884376542E0,-7.782848179E-2,-3.105554581E-1,3.200246572E0
1.894427542E0,1.418799441E-2,-2.557489574E-1,3.335776329E0
1.904477542E0,1.010515168E-1,-1.826792657E-1,3.460275888E0
1.914528542E0,1.674246788E-1,-1.633966416E-1,3.595808506E0
1.924579542E0,2.142302692E-1,-1.694377512E-1,3.721847296E0
1.934630542E0,2.232461423E-1,-1.655679196E-1,3.838634014E0
1.944680542E0,2.300169617E-1,-1.245424598E-1,3.968654871E0
1.954731542E0,2.591106594E-1,-9.018900990E-2,4.114455700E0
1.964782542E0,3.177481294E-1,-5.416602269E-2,4.228826046E0
1.974833542E0,4.076146483E-1,3.227512538E-2,4.278830528E0
1.984884542E0,5.210296512E-1,1.535221934E-1,4.272154808E0
1.994934542E0,6.350682974E-1,2.890866697E-1,4.227900982E0
2.004985542E0,7.570267320E-1,4.395337105E-1,4.148608208E0
2.015036542E0,9.066343307E-1,6.000911593E-1,4.020528316E0
2.025087542E0,1.071647525E0,7.870834470E-1,3.863907337E0
2.035137542E0,1.214547753E0,9.621298313E-1,3.695625067E0
2.045187500E0,1.312953591E0,1.130034566E0,3.530593634E0
2.055238500E0,1.365628004E0,1.305658579E0,3.381488085E0
2.065289500E0,1.386659265E0,1.463163614E0,3.232182264E0
2.075339500E0,1.381515145E0,1.572983265E0,3.077752352E0
2.085390500E0,1.327026606E0,1.659803987E0,2.928060770E0
2.095441500E0,1.245258808E0,1.708589554E0,2.804975510E0
2.105492500E0,1.138104916E0,1.709039927E0,2.711605549E0
2.115543500E0,1.030571461E0,1.665637612E0,2.623832464E0
2.125593500E0,9.164970517E-1,1.585258603E0,2.541062832E0
2.135644500E0,7.928984165E-1,1.479073882E0,2.455480814E0
2.145695500E0,6.762037873E-1,1.346218586E0,2.369735003E0
2.155746500E0,5.575783253E-1,1.193729758E0,2.298907042E0
2.165796500E0,4.383952022E-1,1.035228968E0,2.235783815E0
2.175847500E0,3.266651928E-1,8.819468617E-1,2.176987886E0
2.185898500E0,2.409931719E-1,7.487245798E-1,2.111404896E0
2.195949500E0,1.701890379E-1,6.340581775E-1,2.046885252E0
2.206000500E0,1.061477438E-1,5.584627986E-1,2.017040968E0
2.216050500E0,5.804759264E-2,4.658646286E-1,1.986833215E0
2.226101500E0,1.266493276E-2,3.971758485E-1,1.937679529E0
2.236152500E0,-2.505634911E-2,3.575613499E-1,1.843996644E0
2.246203500E0,-5.059739575E-2,3.379599452E-1,1.717128754E0
2.256253500E0,-6.852925569E-2,3.210379481E-1,1.568042874E0
2.266304500E0,-1.073096767E-1,3.128764331E-1,1.407084584E0
2.276355500E0,-1.722953320E-1,3.106769323E-1,1.247424126E0
2.286406500E0,-2.436326295E-1,2.989025414E-1,1.097607732E0
2.296457500E0,-3.213263452E-1,2.759990990E-1,9.457609057E-1
2.306507500E0,-3.940157294E-1,2.430600524E-1,7.918033004E-1
2.316558500E0,-4.459795952E-1,2.101255506E-1,6.390411854E-1
2.326609500E0,-4.739734232E-1,1.641457975E-1,4.914224148E-1
2.336660500E0,-4.901044667E-1,1.332392842E-1,3.526879847E-1
2.346710500E0,-4.781820178E-1,1.082766801E-1,2.241656929E-1
2.356761500E0,-4.552652538E-1,8.511889726E-2,6.264923513E-2
2.366812500E0,-4.486619532E-1,8.598016202E-2,-1.553110629E-1
2.376863500E0,-4.587659836E-1,9.152273089E-2,-4.284680188E-1
2.386914500E0,-4.603236616E-1,7.908576727E-2,-7.305567265E-1
2.396964500E0,-4.435691833E-1,6.092008576E-2,-1.020841837E0
2.407015500E0,-4.016374350E-1,2.655278891E-2,-1.289301753E0
2.417066500E0,-3.217428923E-1,-1.075942814E-2,-1.562083244E0
2.427117500E0,-2.097716033E-1,-3.848666325E-2,-1.865285993E0
2.437167500E0,-1.039266586E-1,-2.750192396E-2,-2.172199726E0
2.447218500E0,-1.971244998E-2,-4.243080318E-2,-2.465841293E0
2.457269500E0,3.684536740E-2,-6.011712179E-2,-2.723305225E0
2.467320500E0,7.507291436E-2,-7.358153909E-2,-2.935480118E0
2.477370500E0,8.335801214E-2,-5.111696944E-2,-3.099689484E0
2.487421500E0,7.865753025E-2,-3.751514107E-2,-3.226672173E0
2.497472500E0,7.290643454E-2,-2.928011678E-2,-3.321995497E0
2.507523500E0,7.685137540E-2,-3.488393873E-2,-3.386698723E0
2.517574500E0,6.695959717E-2,-8.921748400E-2,-3.429123878E0
2.527624500E0,1.320661977E-2,-2.038415372E-1,-3.456438065E0
2.537675500E0,-8.422779292E-2,-3.444050550E-1,-3.455409288E0
2.547726500E0,-2.235302925E-1,-5.050799251E-1,-3.427477121E0
2.557777500E0,-3.677023947E-1,-6.630069613E-1,-3.390634537E0
2.567827500E0,-4.881835282E-1,-7.813181877E-1,-3.329830408E0
2.577878500E0,-5.529526472E-1,-8.854736090E-1,-3.239214659E0
2.587929500E0,-5.819928646E-1,-9.679279923E-1,-3.112182617E0
2.597980500E0,-5.787672400E-1,-1.023020029E0,-2.962556362E0
2.608031500E0,-5.366325378E-1,-1.038016558E0,-2.806340694E0
2.618081500E0,-4.380502999E-1,-1.032302499E0,-2.688853502E0
2.628132500E0,-2.969318032E-1,-9.769148231E-1,-2.628960609E0
2.638183500E0,-1.238215417E-1,-8.563668132E-1,-2.617607594E0
2.648234500E0,8.837407082E-2,-6.792528033E-1,-2.647537708E0
2.658284500E0,3.246012628E-1,-4.833546877E-1,-2.732188940E0
2.668335500E0,5.515936613E-1,-2.697124183E-1,-2.892436266E0
2.678386500E0,7.395819426E-1,-3.688690066E-2,-3.092810869E0
2.688437500E0,8.962317109E-1,1.644805670E-1,-3.258673668E0
2.698488500E0,1.027761579E0,3.274433911E-1,-3.323227167E0
2.708538500E0,1.144260764E0,4.220425785E-1,-3.283620119E0
2.718589500E0,1.235184073E0,4.994516373E-1,-3.136873960E0
2.728640500E0,1.311965108E0,4.939357042E-1,-2.944458961E0
2.738691500E0,1.353086710E0,4.593095481E-1,-2.753671646E0
2.748741500E0,1.359988809E0,4.266975224E-1,-2.582436323E0
2.758792500E0,1.361113429E0,3.902859986E-1,-2.430966616E0
2.768843500E0,1.349853396E0,3.687058687E-1,-2.315996885E0
2.778894500E0,1.315672517E0,3.802951574E-1,-2.240082979E0
2.788945500E0,1.254031181E0,4.279814363E-1,-2.143308640E0
2.798995500E0,1.181558132E0,4.533182383E-1,-2.002429008E0
2.809046500E0,1.084673047E0,4.582448006E-1,-1.829806566E0
2.819097500E0,9.683783650E-1,4.469966888E-1,-1.634198666E0
2.829148500E0,8.393657804E-1,4.060774744E-1,-1.421254277E0
2.839198500E0,6.947489381E-1,3.474693000E-1,-1.185606003E0
2.849249500E0,5.348490477E-1,2.943336368E-1,-9.062545300E-1
2.859300500E0,3.674038351E-1,1.991027147E-1,-6.137004495E-1
2.869351500E0,1.993043125E-1,8.407147229E-2,-3.437198400E-1
2.879402500E0,5.050978065E-2,-2.716796286E-2,-1.077981368E-1
2.889452500E0,-6.369055808E-2,-1.197397113E-1,7.155591249E-2
2.899503500E0,-1.282698214E-1,-1.844473332E-1,2.004031092E-1
2.909554500E0,-1.445017904E-1,-2.138393074E-1,3.227641582E-1
2.919605500E0,-1.186637953E-1,-1.888546050E-1,4.714660347E-1
2.929655500E0,-6.651404500E-2,-9.408468008E-2,6.297686100E-1
2.939706500E0,7.516509388E-3,4.679814354E-2,7.517384887E-1
2.949757500E0,8.901616186E-2,2.198471427E-1,8.291549683E-1
2.959808500E0,1.711041033E-1,3.854174614E-1,8.781312704E-1
2.969858500E0,2.275250405E-1,5.416592956E-1,9.338230491E-1
2.979909500E0,2.287969589E-1,6.362709999E-1,1.038684726E0
2.989960500E0,1.534039378E-1,6.786240935E-1,1.204240918E0
3.000011500E0,2.982128225E-2,6.882790923E-1,1.426457763E0
3.010062500E0,-1.008842662E-1,6.672467589E-1,1.682659984E0
3.020112500E0,-2.245510817E-1,6.496246457E-1,1.937518120E0
3.030163500E0,-3.240973651E-1,6.383016706E-1,2.170021296E0
3.040215000E0,-3.876595795E-1,6.409904361E-1,2.378772020E0
3.050266000E0,-4.245936275E-1,6.406617761E-1,2.557168007E0
3.060317000E0,-4.520545304E-1,6.314512491E-1,2.712954283E0
3.070367000E0,-4.736634195E-1,6.111667156E-1,2.864223242E0
3.080418000E0,-5.053246617E-1,5.900800824E-1,3.009343386E0
3.090469000E0,-5.490708351E-1,5.556073189E-1,3.147513628E0
3.100520000E0,-6.068619490E-1,4.978481531E-1,3.266779900E0
3.110570000E0,-6.827245355E-1,4.287718534E-1,3.372269869E0
3.120621000E0,-7.811943293E-1,3.401059210E-1,3.437185287E0
3.130672000E0,-8.932253122E-1,2.421830744E-1,3.448158979E0
3.140723000E0,-9.936205745E-1,1.494723111E-1,3.403139114E0
3.150773000E0,-1.054991484E0,7.248725742E-2,3.342762470E0
3.160824000E0,-1.075518847E0,2.089650184E-2,3.280749798E0
3.170875000E0,-1.041004300E0,-1.045343094E-2,3.210161448E0
3.180926000E0,-9.533056617E-1,-1.572675630E-2,3.133223534E0
3.190977000E0,-8.338538408E-1,7.656863425E-3,3.052670240E0
3.201027000E0,-6.900002360E-1,4.628361762E-2,2.974197865E0
3.211078000E0,-5.294499993E-1,1.122072414E-1,2.880530357E0
3.221129000E0,-3.623243868E-1,1.962558031E-1,2.766374350E0
3.231180000E0,-1.943692118E-1,2.917575538E-1,2.627404451E0
3.241231000E0,-4.263960198E-2,4.042097926E-1,2.469750643E0
3.251281000E0,8.860683441E-2,4.994210005E-1,2.291863203E0
3.261332000E0,1.914653033E-1,5.751056671E-1,2.120119333E0
3.271383000E0,2.650180757E-1,6.259496808E-1,1.965814948E0
3.281434000E0,3.084875345E-1,6.409859061E-1,1.840437651E0
3.291484000E0,3.285368681E-1,6.192771196E-1,1.746298075E0
3.301535000E0,3.172203004E-1,5.839657187E-1,1.676388741E0
3.311586000E0,2.894786894E-1,5.230957270E-1,1.626378894E0
3.321637000E0,2.545470595E-1,4.498989880E-1,1.588571072E0
3.331688000E0,2.171182036E-1,3.742548227E-1,1.547051549E0
3.341738000E0,1.865267456E-1,3.036800027E-1,1.496150017E0
3.351789000E0,1.538518816E-1,2.228051275E-1,1.434409499E0
3.361840000E0,1.295087337E-1,1.390662789E-1,1.362737656E0
