"Time (s)","X (µT)","Y (µT)","Z (µT)"
7.496958366E-3,-1.687671814E2,-1.021521606E2,1.110032501E2
1.749495836E-2,-1.678105164E2,-1.019420624E2,1.117497253E2
2.749295835E-2,-1.667178040E2,-1.018266144E2,1.121167679E2
3.749108338E-2,-1.635615540E2,-1.019156494E2,1.125226593E2
4.748908337E-2,-1.615055847E2,-1.016649780E2,1.122879791E2
5.748708337E-2,-1.602785950E2,-1.005454712E2,1.117506256E2
6.748508336E-2,-1.593317871E2,-9.981195068E1,1.103536224E2
7.748308335E-2,-1.599860229E2,-9.916844177E1,1.088884811E2
8.748108335E-2,-1.603502808E2,-9.840512085E1,1.072765121E2
9.747908334E-2,-1.611906738E2,-9.791838074E1,1.056615753E2
1.074770833E-1,-1.619325562E2,-9.715696716E1,1.050765305E2
1.174750833E-1,-1.631524048E2,-9.681617737E1,1.047391739E2
1.274730833E-1,-1.653812561E2,-9.711524963E1,1.051053314E2
1.374710833E-1,-1.671705933E2,-9.773629761E1,1.061222763E2
1.474690833E-1,-1.690903015E2,-9.889839172E1,1.074115143E2
1.574670833E-1,-1.702784119E2,-1.000148010E2,1.095229721E2
1.674650833E-1,-1.705574341E2,-1.006977997E2,1.118633347E2
1.774630834E-1,-1.700119934E2,-1.008220062E2,1.144228134E2
1.874610834E-1,-1.693850098E2,-1.009892120E2,1.172109604E2
1.974590834E-1,-1.682810669E2,-1.007213745E2,1.195007706E2
2.074570834E-1,-1.665365601E2,-1.002568054E2,1.215704498E2
2.174550834E-1,-1.646442871E2,-9.936090088E1,1.231329651E2
2.274530834E-1,-1.627049561E2,-9.805366516E1,1.234587097E2
2.374510834E-1,-1.610468445E2,-9.686517334E1,1.230197296E2
2.474500834E-1,-1.606149902E2,-9.601579285E1,1.213894196E2
2.574480834E-1,-1.603548889E2,-9.551622009E1,1.190117645E2
2.674460834E-1,-1.606315308E2,-9.553610229E1,1.158123856E2
2.774440834E-1,-1.611399841E2,-9.561842346E1,1.127202606E2
2.874420834E-1,-1.626642761E2,-9.509153748E1,1.099178543E2
2.974400833E-1,-1.646219177E2,-9.433151245E1,1.073566971E2
3.074380833E-1,-1.667270813E2,-9.396821594E1,1.047951965E2
3.174360833E-1,-1.698454590E2,-9.416061401E1,1.022903671E2
3.274340833E-1,-1.726820374E2,-9.491592407E1,9.925216675E1
3.374320833E-1,-1.751922913E2,-9.616775513E1,9.550455475E1
3.474300833E-1,-1.776437988E2,-9.814465332E1,9.055699921E1
3.574280833E-1,-1.799612427E2,-1.009592285E2,8.510272217E1
3.674260833E-1,-1.821556091E2,-1.034420929E2,8.005331421E1
3.774240833E-1,-1.835629578E2,-1.056551361E2,7.536170959E1
3.874220834E-1,-1.851242981E2,-1.080073547E2,7.132909393E1
3.974200834E-1,-1.863423462E2,-1.088796692E2,6.674864197E1
4.074180834E-1,-1.870590820E2,-1.097880402E2,6.175124359E1
4.174160834E-1,-1.875469971E2,-1.106005859E2,5.601197815E1
4.274140834E-1,-1.873450623E2,-1.118660126E2,4.961950684E1
4.374120834E-1,-1.867323303E2,-1.136678925E2,4.261404419E1
4.474100834E-1,-1.859329834E2,-1.162229156E2,3.485745239E1
4.574080834E-1,-1.841407471E2,-1.192537689E2,2.709782410E1
4.674060834E-1,-1.815282288E2,-1.221003723E2,1.944752502E1
4.774040834E-1,-1.794673157E2,-1.251250610E2,1.211053467E1
4.874020834E-1,-1.776734619E2,-1.288991241E2,5.044113159E0
4.974000833E-1,-1.760847168E2,-1.323397064E2,-1.137084961E0
5.073980833E-1,-1.745520325E2,-1.357651367E2,-6.602508545E0
5.173960833E-1,-1.729747620E2,-1.392600861E2,-1.174441528E1
5.273940833E-1,-1.713172913E2,-1.429948425E2,-1.531486511E1
5.373920833E-1,-1.705209961E2,-1.463676605E2,-1.900160217E1
5.473900833E-1,-1.693984070E2,-1.489043121E2,-2.188789368E1
5.573880833E-1,-1.687590027E2,-1.518395081E2,-2.447335815E1
5.673860833E-1,-1.678281860E2,-1.540224152E2,-2.589205933E1
5.773840833E-1,-1.669066772E2,-1.568726959E2,-2.679098511E1
5.873820834E-1,-1.656006470E2,-1.587495117E2,-2.720739746E1
5.973800834E-1,-1.640545654E2,-1.598184204E2,-2.659187317E1
6.073780834E-1,-1.628123779E2,-1.604509583E2,-2.583619690E1
6.173760834E-1,-1.605810547E2,-1.611215668E2,-2.496849060E1
6.273740834E-1,-1.556776733E2,-1.632876129E2,-2.345886230E1
6.373730834E-1,-1.526950989E2,-1.639754181E2,-2.314025879E1
6.473710834E-1,-1.495712891E2,-1.653783264E2,-2.311651611E1
6.573690834E-1,-1.463491211E2,-1.657736969E2,-2.424588013E1
6.673670834E-1,-1.435108643E2,-1.666817780E2,-2.607202148E1
6.773650834E-1,-1.407102661E2,-1.673037872E2,-2.806538391E1
6.873630834E-1,-1.381414795E2,-1.705528870E2,-2.915811157E1
6.973610834E-1,-1.372252197E2,-1.739528351E2,-3.125183105E1
7.073590833E-1,-1.371623840E2,-1.757282410E2,-3.371221924E1
7.173570833E-1,-1.369307251E2,-1.773457031E2,-3.415667725E1
7.273550833E-1,-1.380619202E2,-1.791623688E2,-3.514511108E1
7.373530833E-1,-1.393204346E2,-1.800406189E2,-3.553613281E1
7.473510833E-1,-1.405026550E2,-1.810885773E2,-3.478320312E1
7.573490833E-1,-1.417119751E2,-1.807812195E2,-3.424583435E1
7.673470833E-1,-1.427155762E2,-1.800800934E2,-3.369371033E1
7.773450833E-1,-1.432060852E2,-1.791986389E2,-3.310253906E1
7.873430833E-1,-1.433493042E2,-1.781773682E2,-3.351060486E1
7.973410834E-1,-1.427452698E2,-1.762799988E2,-3.373481750E1
8.073390834E-1,-1.415246887E2,-1.753872528E2,-3.403311157E1
8.173370834E-1,-1.398427429E2,-1.747684631E2,-3.476686096E1
8.273350834E-1,-1.376419678E2,-1.738498535E2,-3.558914185E1
8.373330834E-1,-1.352062073E2,-1.733422546E2,-3.691928101E1
8.473310834E-1,-1.330203552E2,-1.732963562E2,-3.860430908E1
8.573290834E-1,-1.307340698E2,-1.743718109E2,-4.020985413E1
8.673270834E-1,-1.286187134E2,-1.752971039E2,-4.227035522E1
8.773250834E-1,-1.270639343E2,-1.762038116E2,-4.402555847E1
8.873230834E-1,-1.261155090E2,-1.771320801E2,-4.589788818E1
8.973210834E-1,-1.258273621E2,-1.779782410E2,-4.793566895E1
9.073190833E-1,-1.257348938E2,-1.780904388E2,-4.977098083E1
9.173170833E-1,-1.263180847E2,-1.789755554E2,-5.159866333E1
9.273150833E-1,-1.270071716E2,-1.793533783E2,-5.285516357E1
9.373130833E-1,-1.274839783E2,-1.796383667E2,-5.342105103E1
9.473110833E-1,-1.280234985E2,-1.798016052E2,-5.353242493E1
9.573090833E-1,-1.284645386E2,-1.789617767E2,-5.282447815E1
9.673070833E-1,-1.289558716E2,-1.773328552E2,-5.275129700E1
9.773050833E-1,-1.290305481E2,-1.764188538E2,-5.219306946E1
9.873030834E-1,-1.287885742E2,-1.760251617E2,-5.172529602E1
9.973010834E-1,-1.281076660E2,-1.756312103E2,-5.161730957E1
1.007299083E0,-1.268095093E2,-1.747748413E2,-5.193313599E1
1.017297083E0,-1.251300964E2,-1.741153564E2,-5.189070129E1
1.027295083E0,-1.232228394E2,-1.737370911E2,-5.146885681E1
1.037292083E0,-1.217279968E2,-1.734915619E2,-5.229100037E1
1.047290083E0,-1.196375122E2,-1.735049591E2,-5.242085266E1
1.057288083E0,-1.180463867E2,-1.744444427E2,-5.298597717E1
1.067287083E0,-1.166838379E2,-1.758517609E2,-5.387113953E1
1.077285083E0,-1.158551941E2,-1.777417145E2,-5.458016968E1
1.087283083E0,-1.160655212E2,-1.793244934E2,-5.553060913E1
1.097281083E0,-1.165782776E2,-1.806605682E2,-5.594612122E1
1.107279083E0,-1.173964233E2,-1.823139496E2,-5.623930359E1
1.117277083E0,-1.185533752E2,-1.838121643E2,-5.608126831E1
1.127275083E0,-1.200125427E2,-1.850582428E2,-5.581481934E1
1.137273083E0,-1.206845703E2,-1.838411560E2,-5.387577820E1
1.147271083E0,-1.215234985E2,-1.839584656E2,-5.168807983E1
1.157269083E0,-1.225934143E2,-1.836977997E2,-5.007484436E1
1.167267083E0,-1.231928406E2,-1.828831787E2,-4.810917664E1
1.177265083E0,-1.231848755E2,-1.822089539E2,-4.637721252E1
1.187263083E0,-1.227135010E2,-1.819678650E2,-4.481318665E1
1.197261083E0,-1.214019470E2,-1.817411346E2,-4.262669373E1
1.207259083E0,-1.198761902E2,-1.814308319E2,-4.139462280E1
1.217257083E0,-1.181050110E2,-1.811582184E2,-4.030787659E1
1.227255083E0,-1.163015442E2,-1.811119690E2,-3.965611267E1
1.237253083E0,-1.145024719E2,-1.813336334E2,-3.977223206E1
1.247251083E0,-1.127726440E2,-1.819581909E2,-3.923471069E1
1.257249083E0,-1.115136108E2,-1.850064392E2,-3.946266174E1
1.267247083E0,-1.104397888E2,-1.884490356E2,-3.979716492E1
1.277245083E0,-1.105833130E2,-1.893556976E2,-4.005459595E1
1.287243083E0,-1.112479553E2,-1.903272095E2,-4.013291931E1
1.297241083E0,-1.120598145E2,-1.909967804E2,-3.957960510E1
1.307239083E0,-1.130494690E2,-1.914398041E2,-3.928437805E1
1.317237083E0,-1.134885254E2,-1.909125366E2,-3.794741821E1
1.327235083E0,-1.138782043E2,-1.907221985E2,-3.641326904E1
1.337233083E0,-1.143013611E2,-1.900182953E2,-3.557725525E1
1.347231083E0,-1.147397156E2,-1.891134491E2,-3.500892639E1
1.357229083E0,-1.144165649E2,-1.888493347E2,-3.406500244E1
1.367227083E0,-1.135334473E2,-1.881434021E2,-3.314811707E1
1.377225083E0,-1.119522400E2,-1.875515594E2,-3.242425537E1
1.387223083E0,-1.098817749E2,-1.874591522E2,-3.187948608E1
1.397221083E0,-1.082500000E2,-1.870464783E2,-3.242298889E1
1.407219083E0,-1.064065247E2,-1.873563080E2,-3.304429626E1
1.417217083E0,-1.049371338E2,-1.874591980E2,-3.430485535E1
1.427215083E0,-1.033684692E2,-1.886512299E2,-3.575459290E1
1.437213083E0,-1.021350403E2,-1.893102722E2,-3.727267456E1
1.447211083E0,-1.008964539E2,-1.900325623E2,-3.804193115E1
1.457209083E0,-1.000754089E2,-1.913750916E2,-3.833961487E1
1.467207083E0,-1.000772705E2,-1.921443024E2,-3.914100647E1
1.477205083E0,-1.006294556E2,-1.933392792E2,-3.995481873E1
1.487203083E0,-1.012774048E2,-1.952976685E2,-4.024281311E1
1.497201083E0,-1.018185425E2,-1.962081604E2,-4.005720520E1
1.507199083E0,-1.022185364E2,-1.966854553E2,-3.964305115E1
1.517197083E0,-1.025873718E2,-1.971175385E2,-3.910226440E1
1.527195083E0,-1.026626587E2,-1.964957428E2,-3.857118225E1
1.537193083E0,-1.022856750E2,-1.950789795E2,-3.746543884E1
1.547191083E0,-1.015744019E2,-1.944021759E2,-3.705470276E1
1.557189083E0,-1.001928406E2,-1.935328827E2,-3.675372314E1
1.567187083E0,-9.838333130E1,-1.926270752E2,-3.679870605E1
1.577185083E0,-9.575512695E1,-1.912919464E2,-3.622755432E1
1.587183083E0,-9.320932007E1,-1.914429169E2,-3.663215637E1
1.597181083E0,-9.080722046E1,-1.920625458E2,-3.786965942E1
1.607179083E0,-8.871786499E1,-1.931407471E2,-3.924919128E1
1.617177083E0,-8.684591675E1,-1.949324951E2,-4.086817932E1
1.627175083E0,-8.509545898E1,-1.972872314E2,-4.217025757E1
1.637174083E0,-8.410073853E1,-1.996489105E2,-4.340780640E1
1.647172083E0,-8.359524536E1,-2.014933929E2,-4.436549377E1
1.657170083E0,-8.354327393E1,-2.037144928E2,-4.470594788E1
1.667168083E0,-8.403320312E1,-2.054007568E2,-4.456913757E1
1.677166083E0,-8.466378784E1,-2.066154480E2,-4.429235840E1
1.687164083E0,-8.580801392E1,-2.076385193E2,-4.407104492E1
1.697162083E0,-8.599816895E1,-2.095946045E2,-4.249789429E1
1.707160083E0,-8.637142944E1,-2.100056152E2,-4.074391174E1
1.717158083E0,-8.625885010E1,-2.113061218E2,-3.872109985E1
1.727156083E0,-8.619635010E1,-2.129148407E2,-3.719277954E1
1.737154083E0,-8.572619629E1,-2.119446259E2,-3.547862244E1
1.747152083E0,-8.484197998E1,-2.128839417E2,-3.387060547E1
1.757150083E0,-8.334454346E1,-2.136867981E2,-3.264341736E1
1.767148083E0,-8.154162598E1,-2.143602600E2,-3.146040344E1
1.777146083E0,-7.905844116E1,-2.144893036E2,-2.987202454E1
1.787144083E0,-7.678936768E1,-2.153950958E2,-2.859274292E1
1.797142083E0,-7.476766968E1,-2.170081024E2,-2.779402161E1
1.807140083E0,-7.333688354E1,-2.183126068E2,-2.733236694E1
1.817138083E0,-7.213168335E1,-2.197445526E2,-2.660343933E1
1.827136083E0,-7.126495361E1,-2.217339630E2,-2.560563660E1
1.837134083E0,-7.077160645E1,-2.231636505E2,-2.351188660E1
1.847132083E0,-7.107180786E1,-2.228976288E2,-2.038166809E1
1.857130083E0,-7.210104370E1,-2.231365509E2,-1.779295349E1
1.867128083E0,-7.370520020E1,-2.237207184E2,-1.462806702E1
1.877126083E0,-7.582467651E1,-2.232769318E2,-1.166255188E1
1.887124083E0,-7.814837646E1,-2.227784882E2,-8.090362549E0
1.897122083E0,-8.023895264E1,-2.218464813E2,-4.455551147E0
1.907120083E0,-8.237377930E1,-2.196197357E2,-8.614501953E-1
1.917118083E0,-8.484646606E1,-2.135488739E2,5.843688965E0
1.927116083E0,-8.552545166E1,-2.093658295E2,8.507522583E0
1.937114083E0,-8.520257568E1,-2.065542450E2,1.109089661E1
1.947112083E0,-8.477658081E1,-2.037958221E2,1.309895325E1
1.957110083E0,-8.435000610E1,-2.031546478E2,1.441625977E1
1.967108083E0,-8.430133057E1,-2.022861023E2,1.462934875E1
1.977106083E0,-8.482452393E1,-2.008566132E2,1.390435791E1
1.987104083E0,-8.599151611E1,-1.974672699E2,1.339001465E1
1.997102083E0,-8.722457886E1,-1.947649689E2,1.236299133E1
2.007100083E0,-8.892730713E1,-1.928664856E2,1.116079712E1
2.017098083E0,-9.081262207E1,-1.909671478E2,1.009178162E1
2.027096083E0,-9.294964600E1,-1.891882172E2,8.956024170E0
2.037094333E0,-9.501489258E1,-1.869059601E2,8.032760620E0
2.047092333E0,-9.723657227E1,-1.852518768E2,7.298370361E0
2.057090333E0,-9.942257690E1,-1.821605835E2,6.260330200E0
2.067088333E0,-1.017825623E2,-1.784933319E2,4.796966553E0
2.077086333E0,-1.032858276E2,-1.756896667E2,3.902389526E0
2.087084333E0,-1.045153503E2,-1.740552521E2,1.811798096E0
2.097082333E0,-1.052311401E2,-1.696777802E2,-5.459442139E-1
2.107080333E0,-1.044368286E2,-1.635772247E2,-2.333114624E0
2.117078333E0,-1.032138977E2,-1.529601898E2,-4.083663940E0
2.127076333E0,-1.018215332E2,-1.497859802E2,-4.640182495E0
2.137074333E0,-1.009715576E2,-1.480500641E2,-5.339584351E0
2.147072333E0,-9.954211426E1,-1.473789978E2,-6.458969116E0
2.157070333E0,-9.793246460E1,-1.473874054E2,-7.177749634E0
2.167068333E0,-9.636694336E1,-1.470018158E2,-8.184707642E0
2.177066333E0,-9.474346924E1,-1.477556915E2,-8.806564331E0
2.187064333E0,-9.373233032E1,-1.485843506E2,-9.647994995E0
2.197062333E0,-9.313442993E1,-1.489925842E2,-1.049127197E1
2.207060333E0,-9.328988647E1,-1.499420471E2,-1.084300232E1
2.217058333E0,-9.389065552E1,-1.503197479E2,-1.137124634E1
2.227056333E0,-9.468286133E1,-1.499743652E2,-1.118927002E1
2.237054333E0,-9.548110962E1,-1.508851013E2,-1.102673340E1
2.247052333E0,-9.616964722E1,-1.494423676E2,-9.615051270E0
2.257050333E0,-9.744458008E1,-1.483029175E2,-8.990386963E0
2.267048333E0,-9.816976929E1,-1.469573517E2,-7.608551025E0
2.277046333E0,-9.876678467E1,-1.471710205E2,-6.693328857E0
2.287044333E0,-9.921063232E1,-1.465003052E2,-6.183319092E0
2.297042333E0,-9.911239624E1,-1.462097168E2,-5.874740601E0
2.307040333E0,-9.830102539E1,-1.456576233E2,-5.073165894E0
2.317038333E0,-9.753329468E1,-1.458704224E2,-4.701110840E0
2.327036333E0,-9.737570190E1,-1.451969452E2,-4.970458984E0
2.337034333E0,-1.021357422E2,-1.437141724E2,-6.132553101E0
2.347032333E0,-1.125088501E2,-1.439630890E2,-5.944442749E0
2.357030333E0,-1.147914734E2,-1.446493378E2,-6.599990845E0
2.367028333E0,-1.147767639E2,-1.459994049E2,-7.860748291E0
2.377026333E0,-1.146214294E2,-1.453557281E2,-8.683929443E0
2.387024333E0,-1.141420898E2,-1.464221039E2,-8.621917725E0
2.397022333E0,-1.144674377E2,-1.483541260E2,-9.081954956E0
2.407020333E0,-1.163171387E2,-1.480985260E2,-9.925384521E0
2.417018333E0,-1.174644165E2,-1.479702911E2,-8.772460938E0
2.427016333E0,-1.192203064E2,-1.492522583E2,-7.578811646E0
2.437014333E0,-1.209407654E2,-1.495654297E2,-6.443176270E0
2.447012333E0,-1.222092590E2,-1.501132965E2,-4.522567749E0
2.457010333E0,-1.239096985E2,-1.494368896E2,-3.032455444E0
2.467008333E0,-1.247886047E2,-1.477775574E2,-1.158386230E0
2.477006333E0,-1.254189453E2,-1.459501495E2,3.886260986E-1
2.487004333E0,-1.257706909E2,-1.443700562E2,1.317153931E0
2.497002333E0,-1.250537415E2,-1.427415619E2,2.917587280E0
2.507000333E0,-1.242487183E2,-1.416882935E2,3.577453613E0
2.516998333E0,-1.225943909E2,-1.408882904E2,4.306427002E0
2.526996333E0,-1.210314331E2,-1.399415588E2,4.588012695E0
2.536994333E0,-1.178165894E2,-1.384055939E2,4.721923828E0
2.546992333E0,-1.178165894E2,-1.384055939E2,4.721923828E0
2.556990333E0,-1.153366089E2,-1.389193878E2,4.014892578E0
2.566988333E0,-1.149252625E2,-1.396257019E2,3.872711182E0
2.576986333E0,-1.145266113E2,-1.404679108E2,3.608047485E0
2.586984333E0,-1.144124451E2,-1.410613861E2,3.651031494E0
2.596982333E0,-1.149378662E2,-1.410043030E2,3.426666260E0
2.606980333E0,-1.154241333E2,-1.413612976E2,3.206222534E0
2.616978333E0,-1.162571411E2,-1.408405151E2,2.829177856E0
2.626976333E0,-1.168211365E2,-1.404171143E2,2.431564331E0
2.636975333E0,-1.174292297E2,-1.396237183E2,2.128173828E0
2.646973333E0,-1.178388062E2,-1.394381104E2,2.128784180E0
2.656971333E0,-1.178733215E2,-1.382678223E2,2.435714722E0
2.666969333E0,-1.179941101E2,-1.368789215E2,2.540573120E0
2.676967333E0,-1.176274719E2,-1.358440247E2,2.562759399E0
2.686965333E0,-1.172838745E2,-1.343328857E2,2.313095093E0
2.696963333E0,-1.166663208E2,-1.339531250E2,1.642700195E0
2.706961333E0,-1.154162598E2,-1.338525238E2,9.584503174E-1
2.716959333E0,-1.145347900E2,-1.339884033E2,9.765625000E-2
2.726957333E0,-1.133992310E2,-1.341935577E2,-5.907287598E-1
2.736955333E0,-1.126786194E2,-1.344740295E2,-1.698303223E0
2.746953333E0,-1.123511963E2,-1.344551392E2,-2.871963501E0
2.756951333E0,-1.121439514E2,-1.346210480E2,-3.543212891E0
2.766949333E0,-1.128495483E2,-1.346483154E2,-4.449859619E0
2.776947333E0,-1.131364136E2,-1.350675201E2,-5.121200562E0
2.786945333E0,-1.140058594E2,-1.358539886E2,-5.364196777E0
2.796943333E0,-1.147273865E2,-1.356479645E2,-5.264709473E0
2.806941333E0,-1.155306396E2,-1.356223755E2,-5.433410645E0
2.816939333E0,-1.167961426E2,-1.356682739E2,-5.250793457E0
2.826937333E0,-1.179486694E2,-1.349180908E2,-5.887802124E0
2.836935333E0,-1.189738770E2,-1.340388794E2,-5.856643677E0
2.846933333E0,-1.194404602E2,-1.330258789E2,-5.176956177E0
2.856931333E0,-1.193798218E2,-1.320658569E2,-4.577957153E0
2.866929333E0,-1.191096802E2,-1.301657867E2,-3.951507568E0
2.876927333E0,-1.181739502E2,-1.293175354E2,-3.456268311E0
2.886925333E0,-1.176914062E2,-1.288274994E2,-3.645477295E0
2.896923333E0,-1.170851440E2,-1.282956543E2,-4.635803223E0
2.906921333E0,-1.165229187E2,-1.276811676E2,-5.568481445E0
2.916919333E0,-1.160886230E2,-1.273548279E2,-6.476623535E0
2.926917333E0,-1.155702820E2,-1.279857330E2,-7.531417847E0
2.936915333E0,-1.151967773E2,-1.291905060E2,-8.578994751E0
2.946913333E0,-1.154205017E2,-1.304080353E2,-9.675140381E0
2.956911333E0,-1.160794983E2,-1.309213409E2,-1.092123413E1
2.966909333E0,-1.172266846E2,-1.308012390E2,-1.181455994E1
2.976907333E0,-1.182026672E2,-1.311785889E2,-1.239967346E1
2.986905333E0,-1.193720703E2,-1.316294250E2,-1.317298889E1
2.996903333E0,-1.202809448E2,-1.307250061E2,-1.280062866E1
3.006901333E0,-1.207927856E2,-1.305299072E2,-1.163836670E1
3.016899333E0,-1.213412170E2,-1.298600006E2,-1.042526245E1
3.026897333E0,-1.217704773E2,-1.284651031E2,-9.085220337E0
3.036896083E0,-1.219972839E2,-1.276589203E2,-8.424774170E0
3.046894083E0,-1.216126404E2,-1.269835358E2,-7.779907227E0
3.056892083E0,-1.212633362E2,-1.269231110E2,-7.787826538E0
3.066890083E0,-1.202054138E2,-1.265490417E2,-7.948303223E0
3.076888083E0,-1.190189209E2,-1.268477631E2,-8.331085205E0
3.086886083E0,-1.178065186E2,-1.267513123E2,-8.588226318E0
3.096884083E0,-1.164283447E2,-1.267111359E2,-8.914230347E0
3.106882083E0,-1.154846802E2,-1.271936188E2,-9.297973633E0
3.116880083E0,-1.148429871E2,-1.276157837E2,-9.988769531E0
3.126878083E0,-1.146388855E2,-1.289494171E2,-1.113613892E1
3.136876083E0,-1.147239990E2,-1.301258698E2,-1.198945618E1
3.146874083E0,-1.149819031E2,-1.313481293E2,-1.274859619E1
3.156872083E0,-1.155161133E2,-1.318014526E2,-1.290003967E1
3.166870083E0,-1.161323242E2,-1.321601257E2,-1.311430359E1
3.176868083E0,-1.170491943E2,-1.316667175E2,-1.324401855E1
3.186866083E0,-1.181852722E2,-1.304243011E2,-1.283161926E1
3.196864083E0,-1.200791626E2,-1.293449860E2,-1.259252930E1
3.206862083E0,-1.205794373E2,-1.293973846E2,-1.218568420E1
3.216860083E0,-1.208775330E2,-1.291500397E2,-1.185589600E1
3.226858083E0,-1.205356750E2,-1.284151611E2,-1.160862732E1
3.236856083E0,-1.200234070E2,-1.269370117E2,-1.157881165E1
3.246854083E0,-1.194387817E2,-1.254768829E2,-1.181198120E1
3.256852083E0,-1.183574524E2,-1.243103180E2,-1.186874390E1
3.266850083E0,-1.172831116E2,-1.253901062E2,-1.244554138E1
3.276848083E0,-1.163903503E2,-1.262296295E2,-1.331675720E1
3.286846083E0,-1.156162720E2,-1.269306335E2,-1.434753418E1
3.296844083E0,-1.150267944E2,-1.284088745E2,-1.510868835E1
3.306842083E0,-1.148265686E2,-1.294973450E2,-1.545861816E1
3.316840083E0,-1.154876709E2,-1.295815277E2,-1.649313354E1
3.326838083E0,-1.161083679E2,-1.290635681E2,-1.645959473E1
3.336836083E0,-1.166981812E2,-1.292611389E2,-1.576161194E1
3.346834083E0,-1.176925964E2,-1.297394867E2,-1.605216980E1
3.356832083E0,-1.180787048E2,-1.303427734E2,-1.510755920E1
3.366830083E0,-1.185828552E2,-1.310794983E2,-1.432147217E1
3.376828083E0,-1.187975159E2,-1.308843842E2,-1.303800964E1
