"Time (s)","X (µT)","Y (µT)","Z (µT)"
1.781987500E-2,1.426758194E1,-1.106226444E0,-4.178622437E1
2.787087500E-2,1.452447891E1,-9.174599648E-1,-4.215733337E1
3.792087500E-2,1.465018082E1,-8.439989090E-1,-4.212420654E1
4.797187500E-2,1.528218460E1,-8.644156456E-1,-4.180505371E1
5.802287500E-2,1.576437759E1,-6.838903427E-1,-4.180480957E1
6.807387500E-2,1.625468063E1,-7.476310730E-1,-4.186317444E1
7.812387500E-2,1.648024368E1,-8.103098869E-1,-4.156108093E1
8.817487500E-2,1.625513458E1,-5.677695274E-1,-4.179690552E1
9.822587500E-2,1.661360168E1,-5.038704872E-1,-4.167411804E1
1.082758750E-1,1.698973656E1,-6.510071754E-1,-4.156301880E1
1.183268750E-1,1.730113602E1,-6.347885132E-1,-4.119015503E1
1.283778750E-1,1.768604469E1,-8.237133026E-1,-4.097393799E1
1.384288750E-1,1.796567535E1,-7.450284958E-1,-4.079455566E1
1.484788750E-1,1.810488510E1,-8.667359352E-1,-4.064588928E1
1.585298750E-1,1.891795731E1,-9.221153259E-1,-4.057864380E1
1.685808750E-1,1.989512444E1,-9.658875465E-1,-4.025094604E1
1.786318750E-1,2.057637405E1,-1.091434956E0,-3.986683655E1
1.886818750E-1,2.114359093E1,-9.316506386E-1,-3.946540833E1
1.987328750E-1,2.217614365E1,-8.597579002E-1,-3.922937012E1
2.087838750E-1,2.280924416E1,-5.960116386E-1,-3.887133789E1
2.188338750E-1,2.363710976E1,-4.179329872E-1,-3.841885376E1
2.288848750E-1,2.458375168E1,1.561169624E-1,-3.788858032E1
2.389358750E-1,2.556462479E1,7.550783157E-1,-3.731373596E1
2.489868750E-1,2.650921822E1,1.369665623E0,-3.706614685E1
2.590368750E-1,2.770747757E1,2.004451752E0,-3.652090454E1
2.690878750E-1,2.889897919E1,2.958472729E0,-3.628659058E1
2.791388750E-1,3.009120941E1,4.011482716E0,-3.558705139E1
2.891898750E-1,3.100355530E1,5.143578053E0,-3.458955383E1
2.992398750E-1,3.193415833E1,6.114127636E0,-3.392419434E1
3.092908750E-1,3.278197479E1,7.440877438E0,-3.375164795E1
3.193418750E-1,3.350212097E1,9.399610519E0,-3.300877380E1
3.293918750E-1,3.432144547E1,1.105455589E1,-3.228123474E1
3.394428750E-1,3.499403381E1,1.319333649E1,-3.180334473E1
3.494938750E-1,3.525738525E1,1.498507500E1,-3.133386230E1
3.595448750E-1,3.552428436E1,1.706313515E1,-3.084089661E1
3.695948750E-1,3.564873505E1,1.895928383E1,-3.012582397E1
3.796458750E-1,3.578827286E1,2.115173531E1,-2.993753052E1
3.896968750E-1,3.588451767E1,2.297453499E1,-2.987051392E1
3.997468750E-1,3.537581635E1,2.491945076E1,-2.930816650E1
4.097978750E-1,3.475997543E1,2.658118439E1,-2.900733948E1
4.198488750E-1,3.421383286E1,2.851877022E1,-2.897773743E1
4.298998750E-1,3.348505402E1,3.028497887E1,-2.936750793E1
4.399498750E-1,3.242573166E1,3.201975632E1,-2.928382874E1
4.500008750E-1,3.137690735E1,3.340879822E1,-2.921440125E1
4.600518750E-1,3.045041466E1,3.495189667E1,-2.956283569E1
4.701028750E-1,2.911328125E1,3.630121994E1,-2.954949951E1
4.801528750E-1,2.806014252E1,3.745250320E1,-2.942446899E1
4.902038750E-1,2.692837906E1,3.874748993E1,-2.964053345E1
5.002548750E-1,2.584555626E1,3.972750473E1,-2.986094666E1
5.103048750E-1,2.452101898E1,4.076446533E1,-2.955014038E1
5.203558750E-1,2.362781525E1,4.201523209E1,-2.955558777E1
5.304068750E-1,2.250251579E1,4.314844131E1,-2.949642944E1
5.404578750E-1,2.147469139E1,4.438012695E1,-2.916435242E1
5.505078750E-1,2.052712822E1,4.540316391E1,-2.900508118E1
5.605588750E-1,1.911884880E1,4.641019058E1,-2.841731262E1
5.706098750E-1,1.787044525E1,4.762676620E1,-2.803652954E1
5.806598750E-1,1.658442879E1,4.856719589E1,-2.725730896E1
5.907108750E-1,1.518917084E1,4.962112045E1,-2.676904297E1
6.007618750E-1,1.354891968E1,5.076276398E1,-2.623150635E1
6.108128750E-1,1.215380478E1,5.171072769E1,-2.561323547E1
6.208628750E-1,1.056522751E1,5.258988953E1,-2.463050842E1
6.309138750E-1,9.069129944E0,5.332446289E1,-2.411227417E1
6.409648750E-1,7.384441376E0,5.420897675E1,-2.325370789E1
6.510158750E-1,5.778301239E0,5.477919388E1,-2.267100525E1
6.610658750E-1,3.935470581E0,5.525766373E1,-2.179597473E1
6.711168750E-1,2.344444275E0,5.569232941E1,-2.142120361E1
6.811678750E-1,5.570030212E-1,5.616266251E1,-2.085575867E1
6.912178750E-1,-8.526840210E-1,5.653680801E1,-2.019836426E1
7.012688750E-1,-2.167572021E0,5.690191650E1,-1.989292908E1
7.113198750E-1,-3.386829376E0,5.682405472E1,-1.951176453E1
7.213708750E-1,-4.651672363E0,5.669474411E1,-1.864282227E1
7.314208750E-1,-5.863674164E0,5.678824615E1,-1.811302185E1
7.414718750E-1,-6.692131042E0,5.694974518E1,-1.773004150E1
7.515228750E-1,-7.532371521E0,5.676350403E1,-1.753849792E1
7.615738750E-1,-8.473342896E0,5.645733643E1,-1.743984985E1
7.716238750E-1,-9.230113983E0,5.657022095E1,-1.733932495E1
7.816748750E-1,-9.952392578E0,5.630236816E1,-1.718934631E1
7.917258750E-1,-1.055438614E1,5.625341415E1,-1.725108337E1
8.017758750E-1,-1.138860321E1,5.600328064E1,-1.746359253E1
8.118268750E-1,-1.191405869E1,5.570314789E1,-1.772937012E1
8.218778750E-1,-1.264747238E1,5.557562637E1,-1.760765076E1
8.319288750E-1,-1.289794922E1,5.554400253E1,-1.824673462E1
8.419788750E-1,-1.349118805E1,5.519201279E1,-1.806140137E1
8.520298750E-1,-1.387136078E1,5.484486771E1,-1.854458618E1
8.620808750E-1,-1.451252365E1,5.445832062E1,-1.904151917E1
8.721308750E-1,-1.470786667E1,5.409238052E1,-1.923985291E1
8.821818750E-1,-1.489694214E1,5.375031662E1,-1.980859375E1
8.922328750E-1,-1.512847900E1,5.382339478E1,-2.015505981E1
9.022838750E-1,-1.557483292E1,5.357676315E1,-2.048988342E1
9.123338750E-1,-1.572070694E1,5.310845184E1,-2.090052795E1
9.223848750E-1,-1.612099075E1,5.283898926E1,-2.107215881E1
9.324358750E-1,-1.627209473E1,5.249061966E1,-2.120066833E1
9.424868750E-1,-1.635114670E1,5.218726349E1,-2.178532410E1
9.525368750E-1,-1.655455399E1,5.183602905E1,-2.204887390E1
9.625878750E-1,-1.677164459E1,5.159855270E1,-2.204278564E1
9.726388750E-1,-1.670868301E1,5.161251068E1,-2.269616699E1
9.826885000E-1,-1.686823654E1,5.121364975E1,-2.302729797E1
9.927395000E-1,-1.712030792E1,5.110132980E1,-2.299026489E1
1.002790500E0,-1.696097946E1,5.128160095E1,-2.338282776E1
1.012841500E0,-1.693908310E1,5.099630356E1,-2.367695618E1
1.022891500E0,-1.653642654E1,5.092971039E1,-2.411747742E1
1.032942500E0,-1.644676971E1,5.089901352E1,-2.386839294E1
1.042993500E0,-1.597496033E1,5.126458359E1,-2.382540894E1
1.053044500E0,-1.565853500E1,5.125479889E1,-2.363220215E1
1.063094500E0,-1.526788330E1,5.138164902E1,-2.380563354E1
1.073145500E0,-1.478824234E1,5.154661560E1,-2.390710449E1
1.083196500E0,-1.435574341E1,5.172764969E1,-2.380175781E1
1.093246500E0,-1.347283173E1,5.198770142E1,-2.404159546E1
1.103297500E0,-1.250776291E1,5.266438675E1,-2.397026062E1
1.113348500E0,-1.163017273E1,5.265243530E1,-2.426695251E1
1.123399500E0,-1.038658905E1,5.287962341E1,-2.437588501E1
1.133449500E0,-9.605049133E0,5.295225143E1,-2.484257507E1
1.143500500E0,-8.833366394E0,5.298156738E1,-2.457504272E1
1.153551500E0,-7.885425568E0,5.323513794E1,-2.446394348E1
1.163601500E0,-6.977973938E0,5.344066620E1,-2.477284241E1
1.173652500E0,-5.851917267E0,5.346992874E1,-2.487266541E1
1.183703500E0,-4.725120544E0,5.362545013E1,-2.480778503E1
1.193754500E0,-3.945297241E0,5.367094421E1,-2.478175354E1
1.203804500E0,-3.093914032E0,5.392762375E1,-2.475585938E1
1.213855500E0,-1.929603577E0,5.391812134E1,-2.485311890E1
1.223906500E0,-1.062812805E0,5.403159714E1,-2.432948303E1
1.233957500E0,-2.468109131E-1,5.431562424E1,-2.423408508E1
1.244007500E0,4.972915649E-1,5.459821320E1,-2.444137573E1
1.254058500E0,1.356891632E0,5.475483322E1,-2.382499695E1
1.264109500E0,2.429584503E0,5.476235962E1,-2.344717407E1
1.274159500E0,3.254322052E0,5.470721436E1,-2.312429810E1
1.284210500E0,4.500644684E0,5.485528183E1,-2.296745300E1
1.294261500E0,5.922527313E0,5.461623764E1,-2.302537537E1
1.304312500E0,6.747531891E0,5.489401245E1,-2.299786377E1
1.314362500E0,8.061054230E0,5.466295624E1,-2.299182129E1
1.324413500E0,9.400455475E0,5.435281754E1,-2.293157959E1
1.334464500E0,1.076351357E1,5.401982498E1,-2.256619263E1
1.344515500E0,1.201856422E1,5.363358307E1,-2.273674011E1
1.354565500E0,1.346991730E1,5.337394333E1,-2.284924316E1
1.364616500E0,1.430526161E1,5.300936508E1,-2.295811462E1
1.374667500E0,1.555816269E1,5.232068253E1,-2.328549194E1
1.384717500E0,1.669044113E1,5.160603333E1,-2.321203613E1
1.394768500E0,1.767846298E1,5.068816376E1,-2.360920715E1
1.404819500E0,1.893676567E1,4.996549988E1,-2.388192749E1
1.414870500E0,1.994602966E1,4.920427704E1,-2.463841248E1
1.424920500E0,2.053003883E1,4.840693665E1,-2.510588074E1
1.434971500E0,2.143805885E1,4.751638031E1,-2.549468994E1
1.445022500E0,2.233264160E1,4.639193344E1,-2.606716919E1
1.455072500E0,2.301091957E1,4.560465622E1,-2.680592346E1
1.465123500E0,2.392477989E1,4.475133514E1,-2.703973389E1
1.475174500E0,2.473347855E1,4.371253204E1,-2.742742920E1
1.485225500E0,2.542405701E1,4.287896347E1,-2.759722900E1
1.495275500E0,2.601543427E1,4.193288040E1,-2.826158142E1
1.505326500E0,2.674841881E1,4.093994904E1,-2.865415955E1
1.515377500E0,2.724044418E1,4.025305939E1,-2.898728943E1
1.525427500E0,2.789476585E1,3.947428894E1,-2.926193237E1
1.535478500E0,2.811366272E1,3.881603622E1,-2.957272339E1
1.545529500E0,2.859083557E1,3.789544296E1,-2.983146667E1
1.555580500E0,2.865339851E1,3.731225204E1,-3.000862122E1
1.565630500E0,2.895104599E1,3.660017395E1,-2.994738770E1
1.575681500E0,2.890410233E1,3.616907120E1,-3.002499390E1
1.585732500E0,2.922954178E1,3.607722473E1,-3.045046997E1
1.595783500E0,2.963574600E1,3.557407761E1,-3.052857971E1
1.605833500E0,2.980943108E1,3.520039749E1,-3.019544983E1
1.615884500E0,2.972911453E1,3.486037445E1,-3.058790588E1
1.625935500E0,2.953178596E1,3.448731613E1,-3.074218750E1
1.635985500E0,2.927642822E1,3.472504044E1,-3.096060181E1
1.646036500E0,2.941776085E1,3.441448212E1,-3.104421997E1
1.656087500E0,2.915201950E1,3.425617599E1,-3.106486511E1
1.666138500E0,2.910983467E1,3.465439606E1,-3.132189941E1
1.676188500E0,2.878008652E1,3.504099274E1,-3.138667297E1
1.686239500E0,2.866346550E1,3.509926987E1,-3.136126709E1
1.696290500E0,2.830204010E1,3.554005051E1,-3.130662537E1
1.706340500E0,2.809701347E1,3.586382294E1,-3.124040222E1
1.716391500E0,2.761311150E1,3.620659256E1,-3.152297974E1
1.726442500E0,2.710718155E1,3.719904327E1,-3.156637573E1
1.736493500E0,2.631591415E1,3.781396103E1,-3.122079468E1
1.746543500E0,2.566373253E1,3.852724075E1,-3.116709900E1
1.756594500E0,2.489222145E1,3.924546814E1,-3.121380615E1
1.766645500E0,2.434020615E1,4.016852570E1,-3.151640320E1
1.776696500E0,2.330495071E1,4.100713348E1,-3.121841431E1
1.786746500E0,2.232612419E1,4.180203247E1,-3.105976868E1
1.796797500E0,2.101924324E1,4.288025284E1,-3.104170227E1
1.806848500E0,1.958962059E1,4.367551422E1,-3.066703796E1
1.816898500E0,1.839074898E1,4.466691208E1,-3.099978638E1
1.826949500E0,1.690430832E1,4.573360825E1,-3.124110413E1
1.837000500E0,1.572677231E1,4.667704010E1,-3.121116638E1
1.847051500E0,1.436448288E1,4.725449371E1,-3.056211853E1
1.857101500E0,1.275517654E1,4.819336319E1,-3.024513245E1
1.867152500E0,1.144465637E1,4.901145172E1,-2.959109497E1
1.877203500E0,1.006960297E1,4.969376373E1,-2.896467590E1
1.887254500E0,8.974124908E0,5.069475937E1,-2.834400940E1
1.897304500E0,8.124217987E0,5.115992737E1,-2.787635803E1
1.907355500E0,6.953899384E0,5.206632996E1,-2.722312927E1
1.917406500E0,6.011386871E0,5.286518860E1,-2.617672729E1
1.927456500E0,5.336288452E0,5.373666763E1,-2.579765320E1
1.937507500E0,4.393836975E0,5.417636490E1,-2.512326050E1
1.947558500E0,3.453563690E0,5.453799057E1,-2.422962952E1
1.957609500E0,2.824840546E0,5.485650253E1,-2.353976440E1
1.967659500E0,1.876094818E0,5.502111053E1,-2.287088013E1
1.977710500E0,9.322586060E-1,5.562669373E1,-2.252246094E1
1.987761500E0,7.484436035E-3,5.564820099E1,-2.237059021E1
1.997811500E0,-8.522720337E-1,5.573145294E1,-2.244311523E1
2.007862500E0,-1.636436462E0,5.593672562E1,-2.200996399E1
2.017913500E0,-2.655227661E0,5.575816345E1,-2.220413208E1
2.027964500E0,-3.315895081E0,5.579918671E1,-2.198065186E1
2.038014500E0,-4.150642395E0,5.531646729E1,-2.247613525E1
2.048065500E0,-4.796543121E0,5.494202042E1,-2.298542786E1
2.058116500E0,-5.503971100E0,5.484052277E1,-2.349456787E1
2.068166500E0,-5.617591858E0,5.429484177E1,-2.404704285E1
2.078217500E0,-6.076362610E0,5.355845261E1,-2.461639404E1
2.088268500E0,-6.420166016E0,5.332054520E1,-2.564173889E1
2.098319500E0,-6.476367950E0,5.236183548E1,-2.630647278E1
2.108369500E0,-6.423965454E0,5.187548447E1,-2.713868713E1
2.118420500E0,-6.255420685E0,5.143183136E1,-2.840626526E1
2.128471500E0,-5.756378174E0,5.086740494E1,-2.954623413E1
2.138522500E0,-4.924053192E0,5.004293060E1,-3.036065674E1
2.148572500E0,-4.278450012E0,4.924395370E1,-3.153735352E1
2.158623500E0,-2.865005493E0,4.843436432E1,-3.222962952E1
2.168674500E0,-1.869171143E0,4.744176865E1,-3.333337402E1
2.178724500E0,-5.884513855E-1,4.642528915E1,-3.445875549E1
2.188775500E0,7.599143982E-1,4.577758408E1,-3.517274475E1
2.198826500E0,2.183879852E0,4.503551865E1,-3.609739685E1
2.208877500E0,3.743713379E0,4.389509964E1,-3.651091003E1
2.218927500E0,5.612403870E0,4.316061783E1,-3.703225708E1
2.228978500E0,7.307033539E0,4.224857712E1,-3.718316650E1
2.239029500E0,9.068302155E0,4.149626160E1,-3.748701477E1
2.249080500E0,1.104248047E1,4.065281677E1,-3.760412598E1
2.259130500E0,1.283211708E1,4.002568436E1,-3.755949402E1
2.269181500E0,1.504961014E1,3.940524292E1,-3.748138428E1
2.279232500E0,1.706042290E1,3.841484833E1,-3.717826843E1
2.289282500E0,1.922801590E1,3.760399628E1,-3.652433777E1
2.299333500E0,2.147986412E1,3.651128006E1,-3.623696899E1
2.309384500E0,2.370908356E1,3.532110977E1,-3.511404419E1
2.319435500E0,2.589910126E1,3.452038956E1,-3.413482666E1
2.329485500E0,2.812887573E1,3.351738358E1,-3.273136902E1
2.339536500E0,3.040196991E1,3.278633881E1,-3.101481628E1
2.349587500E0,3.253359985E1,3.176690483E1,-2.978030396E1
2.359637500E0,3.435340881E1,3.072862434E1,-2.818836975E1
2.369688500E0,3.617274475E1,2.978610802E1,-2.621401978E1
2.379739500E0,3.808193207E1,2.851278877E1,-2.455429077E1
2.389790500E0,3.991151428E1,2.760800743E1,-2.248213196E1
2.399840500E0,4.133652496E1,2.656719017E1,-2.023416138E1
2.409891500E0,4.265436554E1,2.546019936E1,-1.750236511E1
2.419942500E0,4.408689117E1,2.439496040E1,-1.534751892E1
2.429993500E0,4.533119202E1,2.389212799E1,-1.281976318E1
2.440043500E0,4.633364105E1,2.328367996E1,-9.881118774E0
2.450094500E0,4.711202621E1,2.276814079E1,-6.913330078E0
2.460145500E0,4.771471405E1,2.227096558E1,-4.191390991E0
2.470195500E0,4.795922852E1,2.191427803E1,-1.229766846E0
2.480246500E0,4.804405975E1,2.202479362E1,1.816482544E0
2.490297500E0,4.787176895E1,2.191948128E1,4.552429199E0
2.500348500E0,4.755097198E1,2.174329948E1,7.249862671E0
2.510398500E0,4.731912231E1,2.127091599E1,9.640228271E0
2.520449500E0,4.711563110E1,2.060887909E1,1.168142700E1
2.530500500E0,4.670308685E1,2.009583664E1,1.404296875E1
2.540550500E0,4.614126968E1,1.932808876E1,1.559179688E1
2.550601500E0,4.613200378E1,1.857645416E1,1.738246155E1
2.560652500E0,4.545608902E1,1.788473892E1,1.926858521E1
2.570703500E0,4.461549377E1,1.746563148E1,2.111965942E1
2.580753500E0,4.387136459E1,1.725424004E1,2.258248901E1
2.590804500E0,4.277420425E1,1.699387741E1,2.438671875E1
2.600855500E0,4.183846283E1,1.715060425E1,2.582417297E1
2.610906500E0,4.074341202E1,1.742451286E1,2.674993896E1
2.620956500E0,3.986298370E1,1.757411194E1,2.822499084E1
2.631007500E0,3.854357529E1,1.820393562E1,2.923020935E1
2.641058500E0,3.769956589E1,1.870010376E1,3.040295410E1
2.651108500E0,3.668371964E1,1.935198975E1,3.157980347E1
2.661159500E0,3.574349213E1,2.024512863E1,3.247576904E1
2.671210500E0,3.472595596E1,2.106232834E1,3.369718933E1
2.681261500E0,3.363582993E1,2.205166245E1,3.437327576E1
2.691311500E0,3.245026016E1,2.341680145E1,3.536372375E1
2.701362500E0,3.146244049E1,2.446107864E1,3.623878479E1
2.711413500E0,3.080442047E1,2.567928314E1,3.714793396E1
2.721464500E0,2.977255249E1,2.680635643E1,3.732920837E1
2.731514500E0,2.886969376E1,2.765089226E1,3.814311218E1
2.741565500E0,2.832701492E1,2.837576485E1,3.881230164E1
2.751616500E0,2.779558182E1,2.867736626E1,3.899829102E1
2.761666500E0,2.757793808E1,2.939079857E1,3.894505310E1
2.771717500E0,2.704320145E1,2.967042351E1,3.924069214E1
2.781768500E0,2.677184105E1,2.976819420E1,3.938362122E1
2.791819500E0,2.627789116E1,3.038920403E1,3.952612305E1
2.801869500E0,2.627673721E1,3.051063728E1,3.973754883E1
2.811920500E0,2.670199203E1,3.043797112E1,3.958726501E1
2.821971500E0,2.692972565E1,2.988799477E1,3.971397400E1
2.832021500E0,2.749666595E1,2.954498863E1,3.961477661E1
2.842072500E0,2.773865891E1,2.894772148E1,3.948757935E1
2.852123500E0,2.853133011E1,2.823230553E1,3.953688049E1
2.862174500E0,2.898649406E1,2.774822426E1,3.930895996E1
2.872224500E0,2.964259338E1,2.706213951E1,3.920465088E1
2.882275500E0,3.014258194E1,2.642853165E1,3.911802673E1
2.892326500E0,3.049372864E1,2.599330139E1,3.887893677E1
2.902377500E0,3.068588638E1,2.540363503E1,3.882234192E1
2.912427500E0,3.094032669E1,2.523741531E1,3.851593018E1
2.922478500E0,3.075508118E1,2.512813759E1,3.834327698E1
2.932529500E0,3.077920914E1,2.524851608E1,3.832481384E1
2.942579500E0,3.046010208E1,2.523346901E1,3.861244202E1
2.952630500E0,3.012993622E1,2.530545807E1,3.866197205E1
2.962681500E0,2.946537781E1,2.579007149E1,3.912515259E1
2.972732500E0,2.896215439E1,2.636626434E1,3.952502441E1
2.982783167E0,2.810285187E1,2.723787117E1,3.999215698E1
2.992834167E0,2.703284073E1,2.838655281E1,4.067424011E1
3.002885167E0,2.611841965E1,3.023053932E1,4.133500671E1
3.012935167E0,2.476448250E1,3.232025909E1,4.205551910E1
3.022986167E0,2.323244667E1,3.508703613E1,4.333975983E1
3.033037167E0,2.160696411E1,3.820884705E1,4.457771301E1
3.043088167E0,1.959508324E1,4.161669159E1,4.553050232E1
3.053138167E0,1.776329041E1,4.501169205E1,4.609284973E1
3.063189167E0,1.587615776E1,4.813808823E1,4.729938507E1
3.073240167E0,1.409626579E1,5.068680191E1,4.873544312E1
3.083291167E0,1.243679810E1,5.299322891E1,5.007505035E1
3.093341167E0,1.022560120E1,5.518913269E1,5.109578705E1
3.103392167E0,7.521503448E0,5.724856949E1,5.172227478E1
3.113443167E0,4.864387512E0,5.978688431E1,5.046948242E1
3.123493167E0,2.172447205E0,6.237663651E1,4.921200562E1
3.133544167E0,-7.415122986E-1,6.512606049E1,4.709335327E1
3.143595167E0,-3.281696320E0,6.786366272E1,4.441567993E1
3.153646167E0,-5.285202026E0,7.083527374E1,4.192984772E1
3.163696167E0,-7.028297424E0,7.415093231E1,3.994952393E1
3.173747167E0,-8.345237732E0,7.780973053E1,3.855128479E1
3.183798167E0,-9.530139923E0,8.162553406E1,3.764758301E1
3.193849167E0,-1.102131271E1,8.577814484E1,3.669868469E1
3.203899167E0,-1.209899521E1,9.002036285E1,3.660810852E1
3.213950167E0,-1.349589157E1,9.396955872E1,3.568626404E1
3.224001167E0,-1.469905090E1,9.771566010E1,3.489564514E1
3.234051167E0,-1.559574127E1,1.007512741E2,3.351759338E1
3.244102167E0,-1.601629257E1,1.031521454E2,3.143568420E1
3.254153167E0,-1.631033707E1,1.042598953E2,2.967315674E1
3.264204167E0,-1.589896393E1,1.051273422E2,2.727001953E1
3.274254167E0,-1.527559662E1,1.047014542E2,2.418977356E1
3.284305167E0,-1.446797943E1,1.036847916E2,1.989450073E1
3.294356167E0,-1.334429169E1,1.017188034E2,1.502635193E1
3.304406167E0,-1.213902664E1,9.846794128E1,8.744018555E0
3.314457167E0,-1.072098923E1,9.488822174E1,1.832519531E0
3.324508167E0,-9.022647858E0,9.039372253E1,-5.300277710E0
3.334559167E0,-6.695266724E0,8.596270752E1,-1.275631714E1
3.344609167E0,-4.032798767E0,8.106611633E1,-2.000985718E1
3.354660167E0,-1.333614349E0,7.636663055E1,-2.624694824E1
3.364711167E0,8.385925293E-1,7.279399872E1,-3.230119324E1
3.374762167E0,2.202865601E0,7.044855499E1,-3.781790161E1
3.384812167E0,2.830570221E0,6.895336914E1,-4.378021240E1
3.394863167E0,2.378887177E0,6.737252808E1,-5.060824585E1
3.404914167E0,1.391181946E-1,6.508643341E1,-5.832307434E1
3.414964167E0,-7.925006866E0,7.022733307E1,-7.335751343E1
3.425015167E0,-1.328344345E1,8.564679718E1,-9.591281128E1
3.435066167E0,-1.483696365E1,8.992237091E1,-1.021664429E2
3.445117167E0,-1.551390076E1,9.102101898E1,-1.038873291E2
3.455167167E0,-1.557713318E1,9.150793457E1,-1.037003174E2
3.465218167E0,-1.545425034E1,9.173967743E1,-1.034755859E2
3.475269167E0,-1.538674545E1,9.221414185E1,-1.034879761E2
3.485319167E0,-1.518534470E1,9.242290497E1,-1.034123840E2
3.495370167E0,-1.521007919E1,9.253814697E1,-1.032685242E2
