"Time (s)","X (µT)","Y (µT)","Z (µT)"
1.271175000E-2,-8.401813507E0,-5.622367859E1,1.496124268E0
2.276275000E-2,-8.471454620E0,-5.622950745E1,1.637817383E0
3.281375000E-2,-8.466842651E0,-5.626861572E1,1.494842529E0
4.286475000E-2,-8.393753052E0,-5.639641571E1,1.528472900E0
5.291575000E-2,-7.962039948E0,-5.639099884E1,1.487350464E0
6.296775000E-2,-8.237407684E0,-5.621733093E1,1.677139282E0
7.301875000E-2,-8.393970490E0,-5.623169708E1,1.597732544E0
8.306975000E-2,-8.453243256E0,-5.633067322E1,1.722259521E0
9.312075000E-2,-8.655796051E0,-5.608188629E1,1.631164551E0
1.031717500E-1,-8.766571045E0,-5.618134308E1,1.235076904E0
1.132237500E-1,-8.806777954E0,-5.640714264E1,1.346343994E0
1.232747500E-1,-8.897079468E0,-5.613481140E1,1.609008789E0
1.333257500E-1,-9.452095032E0,-5.606249237E1,7.778167725E-1
1.433767500E-1,-9.514739990E0,-5.590643311E1,7.557067871E-1
1.534277500E-1,-9.660274506E0,-5.607547760E1,1.206512451E-1
1.634787500E-1,-9.820133209E0,-5.633713531E1,-7.862548828E-1
1.735307500E-1,-9.430355072E0,-5.610047913E1,-1.151443481E0
1.835817500E-1,-9.241851807E0,-5.590610504E1,-1.958923340E0
1.936327500E-1,-8.936088562E0,-5.625373077E1,-2.818984985E0
2.036837500E-1,-7.988731384E0,-5.610029602E1,-4.071640015E0
2.137347500E-1,-7.243526459E0,-5.630365753E1,-5.077011108E0
2.237867500E-1,-6.137905121E0,-5.629469299E1,-6.030776978E0
2.338377500E-1,-5.057193756E0,-5.630706787E1,-6.517196655E0
2.438887500E-1,-4.110240936E0,-5.661801147E1,-7.176025391E0
2.539397500E-1,-2.861763000E0,-5.681856537E1,-7.659347534E0
2.639907500E-1,-1.571655273E0,-5.678179169E1,-7.995330811E0
2.740417500E-1,-2.790298462E-1,-5.687222290E1,-7.523376465E0
2.840937500E-1,8.055648804E-1,-5.691255951E1,-6.962326050E0
2.941447500E-1,2.341960907E0,-5.691881561E1,-6.440093994E0
3.041957500E-1,3.719142914E0,-5.676100922E1,-5.686874390E0
3.142467500E-1,5.519550323E0,-5.666516876E1,-5.052322388E0
3.242977500E-1,7.827369690E0,-5.623212433E1,-4.357620239E0
3.343497500E-1,9.969745636E0,-5.591169739E1,-3.502090454E0
3.444007500E-1,1.266890526E1,-5.528899384E1,-2.121337891E0
3.544517500E-1,1.527845383E1,-5.460836029E1,-9.953155518E-1
3.645027500E-1,1.795119095E1,-5.385215759E1,-4.210205078E-1
3.745537500E-1,2.073154259E1,-5.258502960E1,2.667999268E-1
3.846047500E-1,2.372113037E1,-5.128110504E1,1.068084717E0
3.946567500E-1,2.652027130E1,-5.004843140E1,1.499664307E0
4.047077500E-1,2.906253242E1,-4.826922226E1,1.506195068E0
4.147587500E-1,3.153578568E1,-4.693473053E1,1.550537109E0
4.248097500E-1,3.372853088E1,-4.515385437E1,1.352600098E0
4.348607500E-1,3.543318176E1,-4.412008667E1,1.400665283E0
4.449117500E-1,3.714794922E1,-4.236931229E1,1.131393433E0
4.549637500E-1,3.869562531E1,-4.112032318E1,6.313934326E-1
4.650147500E-1,3.995814896E1,-3.974517441E1,-1.679687500E-1
4.750657500E-1,4.144925690E1,-3.848896408E1,-6.806793213E-1
4.851167500E-1,4.282585526E1,-3.704855728E1,-1.539184570E0
4.951677500E-1,4.372380829E1,-3.583551407E1,-2.708572388E0
5.052197500E-1,4.462303925E1,-3.465664673E1,-3.910644531E0
5.152707500E-1,4.567604065E1,-3.320711136E1,-5.298446655E0
5.253217500E-1,4.648621368E1,-3.192777443E1,-6.936843872E0
5.353727500E-1,4.709895325E1,-3.053712463E1,-8.479095459E0
5.454237500E-1,4.773612976E1,-2.915682983E1,-1.043385315E1
5.554747500E-1,4.801596832E1,-2.757701111E1,-1.205705261E1
5.655267500E-1,4.855126953E1,-2.639354134E1,-1.387387085E1
5.755777500E-1,4.873343277E1,-2.501178169E1,-1.583239746E1
5.856287500E-1,4.868837738E1,-2.376400375E1,-1.821440125E1
5.956797500E-1,4.869944763E1,-2.208667564E1,-2.053222656E1
6.057307500E-1,4.886236572E1,-2.041307449E1,-2.222929382E1
6.157827500E-1,4.856649780E1,-1.834115982E1,-2.404595947E1
6.258337500E-1,4.848689651E1,-1.595185280E1,-2.624189758E1
6.358847500E-1,4.830327225E1,-1.398250198E1,-2.804354858E1
6.459357500E-1,4.803650284E1,-1.185500336E1,-2.971174622E1
6.559867500E-1,4.758088684E1,-9.575181007E0,-3.063671875E1
6.660377500E-1,4.751898956E1,-7.391937256E0,-3.223741150E1
6.760897500E-1,4.694326019E1,-5.351387978E0,-3.342817688E1
6.861407500E-1,4.633699036E1,-3.589026451E0,-3.443707275E1
6.961917500E-1,4.564059067E1,-1.846424103E0,-3.535191345E1
7.062427500E-1,4.498948288E1,-7.602119446E-2,-3.611859131E1
7.162937500E-1,4.479295349E1,1.519922256E0,-3.681753540E1
7.263447500E-1,4.422093201E1,3.131521225E0,-3.739895630E1
7.363967500E-1,4.404855347E1,4.498069763E0,-3.776312256E1
7.464477500E-1,4.330912399E1,5.871089935E0,-3.802142334E1
7.564987500E-1,4.299392319E1,7.171516418E0,-3.821478271E1
7.665497500E-1,4.282044601E1,8.264530182E0,-3.833355713E1
7.766007500E-1,4.256049347E1,9.353933334E0,-3.803413391E1
7.866527500E-1,4.222251511E1,1.025321198E1,-3.818841553E1
7.967037500E-1,4.220189667E1,1.088646698E1,-3.783901978E1
8.067547500E-1,4.206269836E1,1.170442009E1,-3.825245667E1
8.168057500E-1,4.224548340E1,1.257918739E1,-3.795393372E1
8.268567500E-1,4.223554611E1,1.297299767E1,-3.756066895E1
8.369077500E-1,4.203932190E1,1.348505211E1,-3.715184021E1
8.469597500E-1,4.197262192E1,1.403282356E1,-3.733493042E1
8.570107500E-1,4.233346176E1,1.427409935E1,-3.667292786E1
8.670617500E-1,4.236261749E1,1.457327080E1,-3.622229004E1
8.771131250E-1,4.256168365E1,1.502783775E1,-3.635896301E1
8.871641250E-1,4.263618851E1,1.512711525E1,-3.564953613E1
8.972151250E-1,4.301129913E1,1.518508339E1,-3.545471191E1
9.072671250E-1,4.325260925E1,1.537497139E1,-3.526411438E1
9.173181250E-1,4.356570053E1,1.543890572E1,-3.476388550E1
9.273691250E-1,4.390363693E1,1.560534096E1,-3.413729858E1
9.374201250E-1,4.438390732E1,1.550243187E1,-3.330104065E1
9.474711250E-1,4.473615646E1,1.555385399E1,-3.259672546E1
9.575221250E-1,4.512461090E1,1.548095512E1,-3.209098816E1
9.675741250E-1,4.557426453E1,1.546123314E1,-3.143200684E1
9.776251250E-1,4.579265976E1,1.532895088E1,-3.059866333E1
9.876761250E-1,4.637605286E1,1.533712578E1,-2.991105652E1
9.977271250E-1,4.681497192E1,1.485986900E1,-2.914192200E1
1.007778125E0,4.726816940E1,1.471078682E1,-2.852044678E1
1.017830125E0,4.759138107E1,1.439941978E1,-2.745771790E1
1.027881125E0,4.806303787E1,1.409419441E1,-2.688409424E1
1.037932125E0,4.846035385E1,1.407273293E1,-2.660700989E1
1.047983125E0,4.872517395E1,1.373922157E1,-2.576777649E1
1.058034125E0,4.890259933E1,1.339045143E1,-2.529158020E1
1.068085125E0,4.937755585E1,1.310122681E1,-2.480760193E1
1.078137125E0,4.971496201E1,1.281654930E1,-2.460243225E1
1.088188125E0,4.993497467E1,1.252992630E1,-2.431039429E1
1.098239125E0,5.036236954E1,1.199016190E1,-2.322924805E1
1.108290125E0,5.087829590E1,1.175563049E1,-2.283035278E1
1.118341125E0,5.118623352E1,1.140330696E1,-2.224896240E1
1.128393125E0,5.138426971E1,1.081948662E1,-2.140487671E1
1.138444125E0,5.132575226E1,1.004517365E1,-2.110079956E1
1.148495125E0,5.179344177E1,9.455781937E0,-2.066166687E1
1.158546125E0,5.179972839E1,8.767648697E0,-2.055557251E1
1.168597125E0,5.210713959E1,8.078157425E0,-2.042285156E1
1.178648125E0,5.204914856E1,7.060611725E0,-2.009692383E1
1.188700125E0,5.225127792E1,6.410125732E0,-1.999040222E1
1.198751125E0,5.239732361E1,5.684867859E0,-2.009994507E1
1.208802125E0,5.233106232E1,4.667690277E0,-2.000500488E1
1.218853125E0,5.251433182E1,3.713211060E0,-1.995443726E1
1.228904125E0,5.295491791E1,2.870748520E0,-2.044384766E1
1.238955125E0,5.303364563E1,1.875272751E0,-2.027694702E1
1.249007125E0,5.268326187E1,8.723583221E-1,-2.005603027E1
1.259058125E0,5.289605331E1,-3.082790375E-1,-2.012045288E1
1.269109125E0,5.274979019E1,-1.254089355E0,-2.013450623E1
1.279160125E0,5.281193924E1,-2.383577347E0,-2.036645508E1
1.289211125E0,5.260266495E1,-3.498544693E0,-2.036659241E1
1.299262125E0,5.246161270E1,-4.865393639E0,-2.041229248E1
1.309314125E0,5.237350464E1,-5.743666649E0,-2.080395508E1
1.319365125E0,5.185060501E1,-6.904189110E0,-2.114892578E1
1.329416125E0,5.164693832E1,-8.338189125E0,-2.177040100E1
1.339467125E0,5.119645691E1,-9.654857635E0,-2.216995239E1
1.349518125E0,5.072385788E1,-1.116877556E1,-2.274858093E1
1.359570125E0,5.010225677E1,-1.264206314E1,-2.279093933E1
1.369621125E0,4.957447052E1,-1.396318913E1,-2.322473145E1
1.379672125E0,4.903488541E1,-1.532942772E1,-2.364500427E1
1.389723125E0,4.855646515E1,-1.669829941E1,-2.435292053E1
1.399774125E0,4.791089630E1,-1.798385429E1,-2.456349182E1
1.409825125E0,4.734080124E1,-1.909541893E1,-2.467593384E1
1.419877125E0,4.651338959E1,-2.022269630E1,-2.511062622E1
1.429928125E0,4.582109833E1,-2.150901794E1,-2.559437561E1
1.439979125E0,4.523008728E1,-2.256076050E1,-2.566877747E1
1.450030125E0,4.432801819E1,-2.387493515E1,-2.563023376E1
1.460081125E0,4.346581650E1,-2.501301575E1,-2.560488892E1
1.470132125E0,4.304191589E1,-2.620306396E1,-2.601884460E1
1.480184125E0,4.236078644E1,-2.733674240E1,-2.604994202E1
1.490235125E0,4.172317505E1,-2.821620178E1,-2.618840027E1
1.500286125E0,4.116927338E1,-2.915588188E1,-2.583029175E1
1.510337125E0,4.071080399E1,-2.980499077E1,-2.587278748E1
1.520388125E0,4.002711868E1,-3.045406723E1,-2.588015747E1
1.530439125E0,3.949754715E1,-3.109155083E1,-2.570011902E1
1.540491125E0,3.894855499E1,-3.169887161E1,-2.575190735E1
1.550542125E0,3.871903992E1,-3.213715363E1,-2.571859741E1
1.560593125E0,3.838582611E1,-3.264340973E1,-2.586322021E1
1.570644125E0,3.797155762E1,-3.282991409E1,-2.603782654E1
1.580695125E0,3.770929718E1,-3.335736084E1,-2.626989746E1
1.590747125E0,3.735046005E1,-3.368511200E1,-2.580563354E1
1.600798125E0,3.711767578E1,-3.384196854E1,-2.571464539E1
1.610849125E0,3.726842499E1,-3.397872925E1,-2.570603943E1
1.620900125E0,3.735379028E1,-3.419921112E1,-2.543418884E1
1.630951125E0,3.729666519E1,-3.425153351E1,-2.549969482E1
1.641002125E0,3.714075851E1,-3.422781754E1,-2.532440186E1
1.651054125E0,3.720820618E1,-3.419572067E1,-2.483630371E1
1.661105125E0,3.742752838E1,-3.395621490E1,-2.445576477E1
1.671156125E0,3.751610184E1,-3.355628967E1,-2.476683044E1
1.681207125E0,3.791960526E1,-3.320419312E1,-2.456359863E1
1.691258125E0,3.801280975E1,-3.305532074E1,-2.418183899E1
1.701309125E0,3.838245010E1,-3.255335236E1,-2.453617859E1
1.711361125E0,3.881629944E1,-3.218970108E1,-2.417816162E1
1.721412125E0,3.913884354E1,-3.184004593E1,-2.458644104E1
1.731463125E0,3.949048615E1,-3.144408607E1,-2.441197205E1
1.741514125E0,4.009632492E1,-3.071500015E1,-2.425619507E1
1.751565125E0,4.055016708E1,-3.040055084E1,-2.417025757E1
1.761616125E0,4.097856522E1,-2.948886108E1,-2.442265320E1
1.771668125E0,4.155953217E1,-2.871609497E1,-2.443284607E1
1.781719125E0,4.216070175E1,-2.799047470E1,-2.400886536E1
1.791770125E0,4.254954147E1,-2.713604736E1,-2.356913757E1
1.801821125E0,4.341638947E1,-2.622592545E1,-2.347433472E1
1.811872125E0,4.406685638E1,-2.552508163E1,-2.314300537E1
1.821923125E0,4.458392715E1,-2.476317978E1,-2.245896912E1
1.831975125E0,4.524354172E1,-2.404143715E1,-2.201338196E1
1.842026125E0,4.604645538E1,-2.312708282E1,-2.119610596E1
1.852077125E0,4.648773575E1,-2.248754120E1,-2.102104187E1
1.862128125E0,4.727649689E1,-2.183960533E1,-1.990815735E1
1.872179125E0,4.776352692E1,-2.093991470E1,-1.887698364E1
1.882230250E0,4.839248657E1,-2.031872559E1,-1.857945251E1
1.892281250E0,4.882205200E1,-1.951095200E1,-1.796934509E1
1.902332250E0,4.904410172E1,-1.873324394E1,-1.775334167E1
1.912383250E0,4.974296951E1,-1.800625992E1,-1.794209290E1
1.922434250E0,4.990140915E1,-1.747011757E1,-1.805162048E1
1.932485250E0,5.000642014E1,-1.669113350E1,-1.788778687E1
1.942537250E0,5.010079956E1,-1.605839539E1,-1.786209106E1
1.952588250E0,5.009160614E1,-1.548067665E1,-1.800975037E1
1.962639250E0,5.045188141E1,-1.467615986E1,-1.797755432E1
1.972690250E0,5.075803375E1,-1.360799789E1,-1.798458862E1
1.982741250E0,5.096179581E1,-1.278222656E1,-1.762283325E1
1.992792250E0,5.143000031E1,-1.196468353E1,-1.756517029E1
2.002844250E0,5.156496811E1,-1.090065098E1,-1.748498535E1
2.012895250E0,5.192041397E1,-9.872438431E0,-1.751948547E1
2.022946250E0,5.194156265E1,-8.780574799E0,-1.738061523E1
2.032997250E0,5.206042099E1,-8.060174942E0,-1.754785156E1
2.043048250E0,5.199285126E1,-7.108489037E0,-1.758599854E1
2.053099250E0,5.213880157E1,-6.527593613E0,-1.802038574E1
2.063151250E0,5.212847900E1,-5.520511627E0,-1.851121521E1
2.073202250E0,5.187276840E1,-4.830693245E0,-1.888262939E1
2.083253250E0,5.198038864E1,-4.124620438E0,-1.957647705E1
2.093304250E0,5.191874695E1,-3.380551338E0,-1.984349060E1
2.103355250E0,5.186982727E1,-3.236777306E0,-2.004386902E1
2.113406250E0,5.154550934E1,-2.658781052E0,-2.038323975E1
2.123458250E0,5.152651978E1,-2.352586746E0,-2.053213501E1
2.133509250E0,5.151411438E1,-2.082042694E0,-2.091011047E1
2.143560250E0,5.128960419E1,-1.867555618E0,-2.102128601E1
2.153611250E0,5.113094330E1,-1.625457764E0,-2.125224304E1
2.163662250E0,5.105091858E1,-1.523490906E0,-2.116278076E1
2.173713250E0,5.108287811E1,-1.320991516E0,-2.119270325E1
2.183765250E0,5.111868668E1,-1.174907684E0,-2.083781433E1
2.193816250E0,5.091721344E1,-1.429578781E0,-2.061947632E1
2.203867250E0,5.124381256E1,-1.876588821E0,-2.024722290E1
2.213918250E0,5.149237061E1,-2.196577072E0,-1.958204651E1
2.223969250E0,5.172910309E1,-2.654165268E0,-1.902041626E1
2.234020250E0,5.193979645E1,-3.246778488E0,-1.847512817E1
2.244072250E0,5.212744522E1,-4.207778931E0,-1.800299072E1
2.254123250E0,5.208920288E1,-5.123760223E0,-1.744648743E1
2.264174250E0,5.213508987E1,-6.073431015E0,-1.698794556E1
2.274225250E0,5.212925720E1,-7.019547462E0,-1.632435608E1
2.284276250E0,5.243629837E1,-8.140224457E0,-1.574871826E1
2.294327250E0,5.224067688E1,-9.474858284E0,-1.461308289E1
2.304379250E0,5.236396027E1,-1.057516384E1,-1.381114197E1
2.314430250E0,5.214378738E1,-1.205024147E1,-1.277207947E1
2.324481250E0,5.224163055E1,-1.336005402E1,-1.176924133E1
2.334532250E0,5.173357010E1,-1.470295429E1,-1.053210449E1
2.344583250E0,5.148386383E1,-1.624551582E1,-9.493362427E0
2.354634250E0,5.096504211E1,-1.761317825E1,-8.415405273E0
2.364686250E0,5.051336670E1,-1.901534462E1,-7.056640625E0
2.374737250E0,5.005414963E1,-2.086215782E1,-6.026626587E0
2.384788250E0,4.934633636E1,-2.286075020E1,-5.082748413E0
2.394839250E0,4.831792068E1,-2.467309761E1,-4.332122803E0
2.404890250E0,4.770110703E1,-2.653906250E1,-3.689819336E0
2.414941250E0,4.636951828E1,-2.852466965E1,-3.208328247E0
2.424993250E0,4.516720963E1,-3.039878273E1,-2.145233154E0
2.435044250E0,4.398720551E1,-3.204511261E1,-1.434234619E0
2.445095250E0,4.280073929E1,-3.376518250E1,-6.659393311E-1
2.455146250E0,4.171460342E1,-3.511463928E1,8.631896973E-2
2.465197250E0,4.008395767E1,-3.650520325E1,1.071640015E0
2.475248250E0,3.901477432E1,-3.779813385E1,2.156234741E0
2.485300250E0,3.774650574E1,-3.868565369E1,3.249923706E0
2.495351250E0,3.643036270E1,-3.988935852E1,4.398727417E0
2.505402250E0,3.509227371E1,-4.075177765E1,5.436996460E0
2.515453250E0,3.383506393E1,-4.169504547E1,6.109130859E0
2.525504250E0,3.252796173E1,-4.257870865E1,7.334899902E0
2.535555250E0,3.106062698E1,-4.333538818E1,8.329666138E0
2.545607250E0,2.994222260E1,-4.402512360E1,9.477447510E0
2.555658250E0,2.886788559E1,-4.476673889E1,1.035452271E1
2.565709250E0,2.745059586E1,-4.510253525E1,1.138165283E1
2.575760250E0,2.623852348E1,-4.551885223E1,1.212626648E1
2.585811250E0,2.530534744E1,-4.581755066E1,1.335948181E1
2.595862250E0,2.432278252E1,-4.605802917E1,1.444435120E1
2.605914250E0,2.323136711E1,-4.634838104E1,1.531808472E1
2.615965250E0,2.231527328E1,-4.645468521E1,1.577041626E1
2.626016250E0,2.142154884E1,-4.630599213E1,1.640972900E1
2.636067250E0,2.044444847E1,-4.629341888E1,1.746240234E1
2.646118250E0,1.955590248E1,-4.640662384E1,1.851884460E1
2.656169250E0,1.888520432E1,-4.673978424E1,1.905467224E1
2.666221250E0,1.829904747E1,-4.665441513E1,1.926272583E1
2.676272250E0,1.774495506E1,-4.657954407E1,1.993713379E1
2.686323250E0,1.716353989E1,-4.658238220E1,2.026811218E1
2.696374250E0,1.657324600E1,-4.636698532E1,2.054321289E1
2.706425250E0,1.601267242E1,-4.646813202E1,2.027125549E1
2.716476250E0,1.587205505E1,-4.660462952E1,2.054121399E1
2.726528250E0,1.572006989E1,-4.689027786E1,2.029185486E1
2.736579250E0,1.527380562E1,-4.715674591E1,2.039511108E1
2.746630250E0,1.506884193E1,-4.710711670E1,2.008276367E1
2.756681250E0,1.484060097E1,-4.727033997E1,1.969306946E1
2.766732250E0,1.433094597E1,-4.752384949E1,1.931416321E1
2.776783250E0,1.447061539E1,-4.745666122E1,1.935366821E1
2.786835250E0,1.430010223E1,-4.754315948E1,1.908390808E1
2.796886250E0,1.474898148E1,-4.754211426E1,1.931170654E1
2.806937250E0,1.504152489E1,-4.774316406E1,1.916372681E1
2.816988250E0,1.516800117E1,-4.779158783E1,1.924844360E1
2.827039250E0,1.542975235E1,-4.804854202E1,2.016226196E1
2.837090250E0,1.594636726E1,-4.818197632E1,2.054341125E1
2.847142250E0,1.618811989E1,-4.819252014E1,2.074603271E1
2.857193250E0,1.697146416E1,-4.829679871E1,2.102380371E1
2.867244250E0,1.760601997E1,-4.886302948E1,2.153779602E1
2.877296000E0,1.820023918E1,-4.889675140E1,2.208850098E1
2.887347000E0,1.905995941E1,-4.893176270E1,2.304385376E1
2.897398000E0,2.001351738E1,-4.887820816E1,2.464878845E1
2.907450000E0,2.074007416E1,-4.851651382E1,2.628361511E1
2.917501000E0,2.176907349E1,-4.801962280E1,2.865669250E1
2.927552000E0,2.295642471E1,-4.707812881E1,3.122564697E1
2.937603000E0,2.359987259E1,-4.550069809E1,3.437570190E1
2.947654000E0,2.381756401E1,-4.337489700E1,3.770028687E1
2.957705000E0,2.344892883E1,-4.024652100E1,4.172409821E1
2.967757000E0,2.288912201E1,-3.635910797E1,4.610964966E1
2.977808000E0,2.194545937E1,-3.166455841E1,5.041845703E1
2.987859000E0,2.020866013E1,-2.670547104E1,5.459215546E1
2.997910000E0,1.832698250E1,-2.130914116E1,5.848735809E1
3.007961000E0,1.653773880E1,-1.547288322E1,6.237647247E1
3.018012000E0,1.536845589E1,-8.712381363E0,6.559091187E1
3.028064000E0,1.431482887E1,-1.624893188E0,6.833880615E1
3.038115000E0,1.340511322E1,5.757417679E0,7.079341888E1
3.048166000E0,1.280936432E1,1.310562706E1,7.260035706E1
3.058217000E0,1.248008537E1,2.010354042E1,7.387136841E1
3.068268000E0,1.244038200E1,2.662444496E1,7.429985046E1
3.078319000E0,1.271629333E1,3.219907379E1,7.476935577E1
3.088371000E0,1.255470085E1,3.683430481E1,7.396246338E1
3.098422000E0,1.250128746E1,4.020829010E1,7.327519989E1
3.108473000E0,1.224398994E1,4.144892120E1,7.181154633E1
3.118524000E0,1.171124268E1,4.164382935E1,7.060578156E1
3.128575000E0,1.088586998E1,4.067518616E1,6.914251709E1
3.138626000E0,9.816795349E0,3.934652710E1,6.732466888E1
3.148677000E0,8.019107819E0,3.759867096E1,6.503881073E1
3.158729000E0,6.116466522E0,3.578182220E1,6.303845978E1
3.168780000E0,4.086997986E0,3.396614075E1,6.058684540E1
3.178831000E0,2.288570404E0,3.309098816E1,5.846622467E1
3.188882000E0,9.350585938E-2,3.280056000E1,5.685522461E1
3.198933000E0,-1.904758453E0,3.347771454E1,5.527288818E1
3.208984000E0,-4.107475281E0,3.464638519E1,5.320709229E1
3.219036000E0,-6.118808746E0,3.630435944E1,5.148078156E1
3.229087000E0,-7.759502411E0,3.875390625E1,4.957111359E1
3.239138000E0,-9.037651062E0,4.090504456E1,4.736733246E1
3.249189000E0,-1.037942123E1,4.160483551E1,4.424048615E1
3.259240000E0,-1.126871872E1,4.104065704E1,4.064547729E1
3.269291000E0,-1.195063400E1,3.678362274E1,3.538508606E1
3.279343000E0,-1.267139053E1,2.660685921E1,2.468737793E1
3.289394000E0,-1.651475906E1,2.521379280E1,1.188619995E1
3.299445000E0,-1.762115097E1,2.515016365E1,8.720520020E0
3.309496000E0,-1.765802002E1,2.505191994E1,7.771438599E0
3.319547000E0,-1.772853088E1,2.510150719E1,7.507690430E0
3.329598000E0,-1.779683685E1,2.522801018E1,7.585906982E0
3.339650000E0,-1.781900406E1,2.527687263E1,7.738494873E0
3.349701000E0,-1.797905350E1,2.526708031E1,7.363708496E0
3.359752000E0,-1.810518646E1,2.560629082E1,7.522552490E0
3.369803000E0,-1.795550537E1,2.553192329E1,7.935089111E0
3.379854000E0,-1.801697540E1,2.550605202E1,8.166656494E0
3.389905000E0,-1.823945236E1,2.550378609E1,8.023406982E0
3.399957000E0,-1.804225922E1,2.568685722E1,7.868698120E0
3.410008000E0,-1.838460541E1,2.566662025E1,8.089904785E0
3.420059000E0,-1.805208969E1,2.559518242E1,8.020889282E0
3.430110000E0,-1.789764404E1,2.570852470E1,8.194076538E0
3.440161000E0,-1.788455963E1,2.595386314E1,8.409713745E0
3.450212000E0,-1.782532501E1,2.594001961E1,8.354873657E0
3.460263000E0,-1.784083557E1,2.619577980E1,8.640762329E0
3.470315000E0,-1.805438614E1,2.627689171E1,8.520996094E0
