"Time (s)","X (m/s^2)","Y (m/s^2)","Z (m/s^2)"
-2.512916399E-4,-9.894424438E-2,1.571731567E-2,-9.787397003E0
9.802708344E-3,-6.900650024E-2,6.242019653E-2,-9.787546692E0
1.985770834E-2,-2.888992310E-2,1.619631958E-1,-9.812844086E0
2.991170835E-2,1.975891113E-2,2.661465454E-1,-9.773026886E0
3.996670834E-2,6.107299805E-2,3.342549133E-1,-9.752968597E0
5.002170836E-2,9.071136475E-2,3.595523071E-1,-9.783056030E0
6.007570834E-2,1.116677856E-1,3.393443298E-1,-9.771679688E0
7.013070834E-2,8.202941895E-2,2.728825378E-1,-9.765692139E0
8.018470835E-2,1.302291870E-2,1.764830017E-1,-9.787546692E0
9.023970834E-2,-6.451583862E-2,1.212478638E-1,-9.778715057E0
1.002947083E-1,-1.351689148E-1,9.370513916E-2,-9.783654785E0
1.103487083E-1,-1.853146362E-1,1.023870850E-1,-9.793234863E0
1.204037083E-1,-1.941462708E-1,1.445993042E-1,-9.776769104E0
1.304587084E-1,-1.670526123E-1,1.953437805E-1,-9.788594513E0
1.405127083E-1,-1.161584473E-1,2.426454163E-1,-9.785301361E0
1.505677083E-1,-6.601272583E-2,2.766247559E-1,-9.774972839E0
1.606217083E-1,-3.128494263E-2,2.809657288E-1,-9.794132996E0
1.706767083E-1,5.538482666E-3,2.516267395E-1,-9.789642334E0
1.807317084E-1,2.350112915E-2,2.064207458E-1,-9.775272217E0
1.907857083E-1,4.849914551E-2,1.477427673E-1,-9.798773346E0
2.008407083E-1,6.511459351E-2,1.143621826E-1,-9.790091400E0
2.108947083E-1,6.391708374E-2,8.726852417E-2,-9.771679688E0
2.209497083E-1,6.047424316E-2,9.235794067E-2,-9.785301361E0
2.310047084E-1,4.415817261E-2,1.392105103E-1,-9.787097626E0
2.410587083E-1,1.496887207E-3,1.941462708E-1,-9.787247314E0
2.511137083E-1,-5.523513794E-2,2.579136658E-1,-9.779613190E0
2.611677083E-1,-1.146615601E-1,2.921923828E-1,-9.783804474E0
2.712227083E-1,-1.532812500E-1,3.053649902E-1,-9.793384552E0
2.812777084E-1,-1.570234680E-1,2.715353394E-1,-9.772727509E0
2.913317083E-1,-1.308279419E-1,2.188449097E-1,-9.776469727E0
3.013867083E-1,-6.990463257E-2,1.625619507E-1,-9.763297119E0
3.114417084E-1,7.185058594E-3,1.052311707E-1,-9.776619415E0
3.214957083E-1,7.798782349E-2,7.963439941E-2,-9.784702606E0
3.315507084E-1,1.167572021E-1,9.954299927E-2,-9.771829376E0
3.416047083E-1,1.200503540E-1,1.420545959E-1,-9.786498871E0
3.516597083E-1,8.666976929E-2,2.086660767E-1,-9.787546692E0
3.617147084E-1,3.293151855E-2,2.745291138E-1,-9.771529999E0
3.717687083E-1,-1.212478638E-2,3.070115662E-1,-9.792636108E0
3.818237083E-1,-5.284011841E-2,2.951861572E-1,-9.783205719E0
3.918777083E-1,-8.726852417E-2,2.647993469E-1,-9.771679688E0
4.019327083E-1,-1.107696533E-1,2.070195007E-1,-9.792336731E0
4.119877084E-1,-1.109193420E-1,1.475930786E-1,-9.778715057E0
4.220417083E-1,-1.228944397E-1,1.025367737E-1,-9.782157898E0
4.320967083E-1,-1.152603149E-1,8.846603394E-2,-9.798473969E0
4.421517084E-1,-1.004411316E-1,1.026864624E-1,-9.779613190E0
4.522057083E-1,-7.634124756E-2,1.426533508E-1,-9.779912567E0
4.622607084E-1,-3.727249146E-2,1.926493835E-1,-9.787696381E0
4.723147083E-1,5.987548828E-3,2.469863892E-1,-9.779014435E0
4.823697083E-1,5.388793945E-2,2.642005920E-1,-9.780062256E0
4.924247084E-1,8.652008057E-2,2.662962341E-1,-9.779313812E0
5.024787083E-1,9.819580078E-2,2.429447937E-1,-9.770781555E0
5.125337084E-1,6.182144165E-2,2.004331970E-1,-9.791438599E0
5.225877083E-1,-1.047821045E-3,1.627116394E-1,-9.792336731E0
5.326427083E-1,-5.867797852E-2,1.246907043E-1,-9.780661011E0
5.426977084E-1,-1.076261902E-1,1.197509766E-1,-9.784253540E0
5.527517083E-1,-1.498384094E-1,1.333726501E-1,-9.786049805E0
5.628067084E-1,-1.442999268E-1,1.591191101E-1,-9.788744202E0
5.728607083E-1,-1.130149841E-1,1.896556091E-1,-9.786049805E0
5.829157083E-1,-7.035369873E-2,2.234852600E-1,-9.777517548E0
5.929707084E-1,-1.990859985E-2,2.408491516E-1,-9.781858521E0
6.030247083E-1,1.975891113E-2,2.309696960E-1,-9.778715057E0
6.130797084E-1,4.640350342E-2,2.155517578E-1,-9.779164124E0
6.231347084E-1,3.936813354E-2,1.896556091E-1,-9.779613190E0
6.331887083E-1,2.844085693E-2,1.624122620E-1,-9.772428131E0
6.432437084E-1,2.424957275E-2,1.505868530E-1,-9.786049805E0
6.532976250E-1,4.490661621E-3,1.377136230E-1,-9.774374084E0
6.633526250E-1,-2.170486450E-2,1.441502380E-1,-9.772278442E0
6.734076250E-1,-2.874023438E-2,1.701960754E-1,-9.782906342E0
6.834616250E-1,-5.313949585E-2,1.944456482E-1,-9.780511322E0
6.935166250E-1,-8.756790161E-2,2.182461548E-1,-9.773625641E0
7.035706250E-1,-1.115180969E-1,2.245330811E-1,-9.791139221E0
7.136256250E-1,-1.320254517E-1,2.207908630E-1,-9.789193268E0
7.236806250E-1,-1.246907043E-1,2.209405518E-1,-9.792187042E0
7.337346250E-1,-1.040336609E-1,1.910028076E-1,-9.778864746E0
7.437896250E-1,-5.792953491E-2,1.754351807E-1,-9.777966614E0
7.538436250E-1,-2.544708252E-3,1.616638184E-1,-9.780361633E0
7.638986250E-1,5.089416504E-2,1.685494995E-1,-9.777068481E0
7.739536250E-1,8.906478882E-2,1.939965820E-1,-9.773026886E0
7.840076250E-1,9.834548950E-2,2.023791504E-1,-9.775272217E0
7.940626250E-1,8.532257080E-2,2.095642090E-1,-9.774673462E0
8.041176250E-1,4.131408691E-2,2.239343262E-1,-9.783205719E0
8.141716250E-1,-8.532257080E-3,2.139051819E-1,-9.783505096E0
8.242266250E-1,-6.511459351E-2,2.008822632E-1,-9.781708832E0
8.342806250E-1,-9.595046997E-2,1.874102783E-1,-9.784253540E0
8.443356250E-1,-1.124162292E-1,1.616638184E-1,-9.790091400E0
8.543906250E-1,-1.095721436E-1,1.499880981E-1,-9.779613190E0
8.644446250E-1,-9.535171509E-2,1.511856079E-1,-9.786049805E0
8.744996250E-1,-6.511459351E-2,1.652563477E-1,-9.791438599E0
8.845536250E-1,-3.936813354E-2,1.971400452E-1,-9.778265991E0
8.946086250E-1,-1.781295776E-2,2.206411743E-1,-9.784103851E0
9.046636250E-1,-8.831634521E-3,2.357597351E-1,-9.780062256E0
9.147176250E-1,1.945953369E-3,2.318678284E-1,-9.783355408E0
9.247726250E-1,2.874023438E-2,2.136058044E-1,-9.782457275E0
9.348266250E-1,3.757186890E-2,1.926493835E-1,-9.773775330E0
9.448816250E-1,3.981719971E-2,1.755848694E-1,-9.783654785E0
9.549366250E-1,2.020797729E-2,1.516346741E-1,-9.777068481E0
9.649906250E-1,-7.334747314E-3,1.448986816E-1,-9.738299103E0
9.750456250E-1,-4.430786133E-2,1.562750244E-1,-9.832602997E0
9.851006250E-1,-9.445358276E-2,1.823208618E-1,-9.799671478E0
9.951546250E-1,-1.225950623E-1,2.055226135E-1,-9.751621399E0
1.005209625E0,-1.212478638E-1,2.296224976E-1,-9.793384552E0
1.015263625E0,-9.610015869E-2,2.281256104E-1,-9.792037354E0
1.025318625E0,-6.661148071E-2,2.215393066E-1,-9.767937469E0
1.035373625E0,-5.239105225E-3,1.984872437E-1,-9.794282684E0
1.045427625E0,4.296066284E-2,1.773811340E-1,-9.790091400E0
1.055482625E0,5.568420410E-2,1.609153748E-1,-9.779613190E0
1.065536625E0,4.326004028E-2,1.363664246E-1,-9.790839844E0
1.075591625E0,2.395019531E-2,1.465452576E-1,-9.772428131E0
1.085646625E0,7.334747314E-3,1.746867371E-1,-9.764195251E0
1.095700625E0,-3.233276367E-2,2.115101624E-1,-9.793833618E0
1.105755625E0,-5.313949585E-2,2.185455322E-1,-9.799222412E0
1.115809625E0,-6.017486572E-2,2.294728088E-1,-9.786498871E0
1.125864625E0,4.879852295E-2,2.080673218E-1,-9.775272217E0
1.135919625E0,5.373825073E-1,2.140548706E-2,-9.808353424E0
1.145973625E0,1.597328339E0,-4.742138672E-1,-9.726024628E0
1.156028625E0,1.584455109E0,-2.517764282E-1,-9.808503113E0
1.166083625E0,1.928589478E0,-3.453318787E-1,-9.779014435E0
1.176137625E0,8.485853577E-1,-3.742218018E-3,-9.768985291E0
1.186192625E0,-1.194366302E0,2.694396973E-1,-9.777068481E0
1.196246625E0,-2.864892426E0,6.212081909E-1,-9.787995758E0
1.206301625E0,-1.719174957E0,6.676116943E-2,-9.828561401E0
1.216356625E0,-5.209167480E-2,-4.486170959E-1,-9.791438599E0
1.226410625E0,1.834285583E0,-6.167175293E-1,-9.766440582E0
1.236465625E0,2.923570404E0,-8.135581970E-1,-9.795929260E0
1.246519625E0,1.969005432E0,-1.276844788E-1,-9.963880005E0
1.256574625E0,1.333726501E-1,5.574407959E-1,-1.060020676E1
1.266629625E0,-1.817969513E0,5.888754272E-1,-1.077324692E1
1.276683625E0,-1.435215454E0,7.110214233E-2,-9.450148315E0
1.286738625E0,-1.975292358E0,4.514611816E-1,-8.935668182E0
1.296793625E0,-3.172353058E0,1.071022797E0,-9.777816925E0
1.306847625E0,-2.000889130E0,7.018904114E-1,-1.010952713E1
1.316902625E0,-1.897154846E0,9.535171509E-2,-1.016910324E1
1.326956625E0,3.303630066E-1,9.119036865E-1,-9.981243896E0
1.337011625E0,9.725276184E-1,1.247356110E0,-1.194635742E1
1.347066625E0,1.511856079E-2,9.355545044E-1,-1.266037262E1
1.357120625E0,-3.347039795E-1,6.825805664E-1,-1.298070648E1
1.367175625E0,3.752696228E-1,2.954855347E-1,-1.305195831E1
1.377229625E0,8.744815063E-1,2.826123047E-1,-1.265363663E1
1.387284625E0,1.272952881E0,9.114546204E-1,-1.217358490E1
1.397339625E0,2.168091431E0,4.227209473E-1,-1.057805283E1
1.407393625E0,4.603676605E0,-3.773652649E-1,-8.673114166E0
1.417448625E0,6.015241241E0,-6.906637573E-1,-8.141569519E0
1.427502625E0,6.167624359E0,-4.890330505E-1,-8.526718597E0
1.437557625E0,6.693929901E0,-7.665559387E-1,-8.530909882E0
1.447612625E0,7.092401276E0,-1.662891998E0,-7.829917603E0
1.457666625E0,7.962242432E0,-1.456171875E0,-6.932234344E0
1.467721625E0,9.196875000E0,-6.626719666E-1,-6.518045654E0
1.477776625E0,1.074750046E1,-2.115101624E-1,-6.828050995E0
1.487830625E0,1.143546982E1,-4.037104797E-1,-6.955436096E0
1.497885625E0,1.086156326E1,-6.728507996E-1,-6.965165863E0
1.507939625E0,1.009156448E1,-1.005459137E0,-6.639143829E0
1.517994625E0,9.858499146E0,-9.961784363E-1,-6.006559296E0
1.528049625E0,9.937235413E0,-6.752458191E-1,-5.313949585E0
1.538103625E0,9.895023193E0,-3.838018799E-1,-4.544399872E0
1.548158625E0,1.014814682E1,2.421963501E-1,-3.483855286E0
1.558212625E0,1.090227859E1,1.003962250E0,-2.524949341E0
1.568267625E0,1.143996048E1,1.247206421E0,-1.726509705E0
1.578322625E0,1.102502335E1,9.306147766E-1,-1.135388947E0
1.588376625E0,1.005519012E1,4.228706360E-1,-8.845106506E-1
1.598431625E0,9.195078735E0,7.993377686E-2,-6.968009949E-1
1.608485625E0,8.425379333E0,-1.260379028E-1,-5.354365540E-1
1.618540625E0,7.657925262E0,-1.112187195E-1,-3.817062378E-1
1.628595625E0,6.528224487E0,2.627037048E-1,-4.171824646E-1
1.638649625E0,5.274431763E0,8.345146179E-1,-5.213658142E-1
1.648704583E0,4.624483337E0,1.146166534E0,-3.454815674E-1
1.658759583E0,4.547094269E0,1.539249115E0,2.365081787E-1
1.668813583E0,4.223317566E0,2.227218475E0,7.791297913E-1
1.678868583E0,4.295168152E0,2.522554321E0,1.428479462E0
1.688922583E0,5.017266541E0,1.994153137E0,2.164199524E0
1.698977583E0,6.040538635E0,1.520837402E0,4.881199493E0
1.709032583E0,7.174879761E0,3.200793915E0,1.343231735E1
1.719086583E0,9.170829163E0,1.137933655E0,1.156435181E1
1.729141583E0,8.269852753E0,-2.718347168E-1,1.074495575E1
1.739195583E0,6.294111328E0,1.432521057E-1,1.001342697E1
1.749250583E0,4.534520416E0,2.544708252E-1,7.993826752E0
1.759305583E0,3.459605713E0,6.152206421E-2,6.284531250E0
1.769359583E0,2.900817719E0,-9.011260986E-2,4.956193542E0
1.779414583E0,2.058818665E0,-8.831634521E-2,4.188440094E0
1.789468583E0,1.429826660E0,-3.939807129E-1,4.239034882E0
1.799523583E0,1.381327515E0,-5.539979553E-1,5.063520355E0
1.809578583E0,2.409988403E-1,9.797126770E-1,7.211703186E0
1.819632583E0,-3.531156921E-1,1.876048737E0,9.114396515E0
1.829687583E0,-4.001179504E-1,1.888772278E0,9.868528290E0
1.839741583E0,-1.007405090E-1,1.616638184E0,9.887239380E0
1.849796583E0,5.905220032E-1,1.652413788E0,3.960464172E0
1.859851583E0,-6.167175293E-2,1.349144440E0,5.019511871E0
1.869905583E0,2.439926147E-2,2.311343536E0,8.735234985E0
1.879960583E0,2.160008240E0,2.599194946E0,9.820029144E0
1.890015583E0,4.414320374E0,2.875071259E0,1.117680771E1
1.900069583E0,5.214705963E0,3.223247223E0,1.156270523E1
1.910124583E0,4.527634735E0,2.886896667E0,1.111947693E1
1.920178583E0,3.862717438E0,2.261048126E0,9.506730652E0
1.930233583E0,3.319796448E0,2.088307343E0,7.938890991E0
1.940288583E0,2.631378021E0,2.630779266E0,7.377558289E0
1.950342583E0,1.789528656E0,3.827540588E0,7.595654755E0
1.960397583E0,8.195457458E-1,4.716541901E0,8.114026794E0
1.970451583E0,-3.513194275E-1,4.634063416E0,9.171128540E0
1.980506583E0,-9.931846619E-1,3.232078857E0,1.091290649E1
1.990561583E0,-2.219284973E0,1.695374451E0,1.318098999E1
2.000615583E0,-3.829636230E0,1.106349335E0,1.497845215E1
2.010670583E0,-5.590274963E0,1.607058105E0,1.645528107E1
2.020725583E0,-7.082372131E0,2.712808685E0,1.768407578E1
2.030779583E0,-7.728877716E0,4.079167328E0,1.769679932E1
2.040834583E0,-6.799610138E0,3.723357239E0,1.586236404E1
2.050888583E0,-3.753145294E0,2.517913971E0,1.277204041E1
2.060943583E0,-2.132465515E0,1.996847534E0,1.083866089E1
2.070998583E0,-2.519710236E0,2.536625061E0,1.074585388E1
2.081052583E0,-3.199895782E0,3.887416077E0,1.197240326E1
2.091107583E0,-3.698658600E0,5.185666351E0,1.377031448E1
2.101161583E0,-4.241280212E0,5.777086487E0,1.567689972E1
2.111216583E0,-4.872966614E0,5.662275238E0,1.766551437E1
2.121271583E0,-5.262756042E0,5.705385590E0,1.962493973E1
2.131325583E0,-5.230123901E0,5.686674500E0,2.092798004E1
2.141380583E0,-5.336402893E0,5.543572083E0,2.093321915E1
2.151434583E0,-5.747298431E0,5.097948761E0,1.949471054E1
2.161489583E0,-5.818550262E0,4.098626862E0,1.661574738E1
2.171544583E0,-5.541027374E0,2.947221222E0,1.380504227E1
2.181598583E0,-4.941973114E0,1.911674652E0,1.126991409E1
2.191653583E0,-4.563560028E0,1.195563812E0,9.278605042E0
2.201708583E0,-4.419260101E0,9.000782776E-1,8.053851929E0
2.211762583E0,-4.155059509E0,2.686912537E-1,7.313940582E0
2.221817583E0,-4.388424225E0,-5.456153870E-1,6.056405640E0
2.231871583E0,-4.976850586E0,-1.224603424E0,3.363505554E0
2.241926583E0,-4.919669495E0,-1.928140411E0,7.819738770E-1
2.251981583E0,-4.868475952E0,-2.367327118E0,-9.470805359E-1
2.262035583E0,-4.859344940E0,-2.076032867E0,-2.031725006E0
2.272090583E0,-3.334166565E0,-2.766696625E0,-7.710466003E0
2.282144583E0,-3.266656952E0,-4.396058350E0,-1.087458618E1
2.292199583E0,-3.439547424E0,-5.961053925E0,-6.882837067E0
2.302254583E0,-3.192411346E0,-6.132896576E0,-6.775959320E0
2.312308583E0,-2.183060303E0,-5.625451813E0,-7.943681030E0
2.322363583E0,-6.153703308E-1,-5.407505035E0,-7.488777008E0
2.332417583E0,-1.804347839E0,-4.653223572E0,-5.101541290E0
2.342472583E0,-3.653901672E0,-3.066672821E0,-2.811453552E0
2.352527583E0,-2.550995178E0,1.841171265E-2,-6.181246033E0
2.362581583E0,3.258723450E-1,3.436403961E0,-7.433841248E0
2.372636583E0,4.399950256E0,4.992567902E0,-1.032253418E1
2.382691583E0,4.005969543E0,4.624183960E0,-1.009366013E1
2.392745583E0,3.503314819E0,4.626578979E0,-4.382436676E0
2.402800583E0,3.773802338E0,5.292544098E0,5.786965942E-1
2.412854583E0,3.977977753E0,6.985972595E0,2.528092804E0
2.422909583E0,4.210444336E0,8.626111908E0,4.713398438E0
2.432964583E0,3.430715790E0,9.963281250E0,6.448739777E0
2.443018583E0,2.483186188E0,1.152348679E1,6.413712616E0
2.453073583E0,1.963916016E0,1.198497711E1,6.007307739E0
2.463127583E0,1.654359741E0,1.189561295E1,5.985752563E0
2.473182583E0,8.836125183E-1,1.265258881E1,5.770649872E0
2.483237583E0,4.246669006E-1,1.328562241E1,5.182971954E0
2.493291583E0,7.508386230E-1,1.344713654E1,4.357887726E0
2.503346583E0,9.075627136E-1,1.327200073E1,3.605252838E0
2.513400583E0,5.893244934E-1,1.310404999E1,3.540138245E0
2.523455583E0,2.661465454E-1,1.262369888E1,3.551664276E0
2.533510583E0,-1.016386414E-1,1.213646210E1,3.428021393E0
2.543564583E0,-5.212161255E-1,1.186507645E1,3.126398621E0
2.553619583E0,-9.891430664E-1,1.181283508E1,2.641107788E0
2.563674583E0,-1.201102295E0,1.173439819E1,2.342778168E0
2.573728583E0,-1.301244049E0,1.170206543E1,2.439028015E0
2.583783583E0,-1.151255951E0,1.169278473E1,2.809956665E0
2.593837583E0,-9.081614685E-1,1.162572418E1,3.290906525E0
2.603892583E0,-9.119036865E-1,1.164009430E1,3.801494751E0
2.613947583E0,-1.095721436E0,1.171733368E1,3.990850983E0
2.624001583E0,-1.139430542E0,1.170101761E1,3.763773193E0
2.634056583E0,-1.136287079E0,1.142499161E1,3.369792480E0
2.644110583E0,-1.175056458E0,1.091949280E1,3.230581970E0
2.654166083E0,-1.666185150E0,1.057221497E1,3.133284302E0
2.664221083E0,-1.919009399E0,1.058448944E1,3.175795898E0
2.674275083E0,-2.176174622E0,1.070319260E1,3.409609680E0
2.684330083E0,-2.275717621E0,1.090332642E1,3.665577393E0
2.694384083E0,-2.056573334E0,1.077564194E1,3.701802063E0
2.704439083E0,-1.653910675E0,1.038839722E1,3.468287659E0
2.714494083E0,-1.278491364E0,1.010503647E1,3.140918427E0
2.724548083E0,-1.222208405E0,9.944121094E0,2.844385071E0
2.734603083E0,-1.290466461E0,9.894125061E0,2.843786316E0
2.744657083E0,-1.398242340E0,9.838440857E0,3.039579163E0
2.754712083E0,-1.451082458E0,9.763746185E0,3.275039520E0
2.764767083E0,-1.395248566E0,9.733658752E0,3.294049988E0
2.774821083E0,-1.281784515E0,9.675429840E0,3.134631500E0
2.784876083E0,-1.211730194E0,9.563013611E0,2.854563904E0
2.794931083E0,-1.183289337E0,9.407037964E0,2.575843506E0
2.804985083E0,-1.265019379E0,9.273216248E0,2.486329651E0
2.815040083E0,-1.274300079E0,9.266929321E0,2.531835022E0
2.825094083E0,-1.320254517E0,9.258846130E0,2.648741913E0
2.835149083E0,-1.315763855E0,9.244625702E0,2.716850281E0
2.845204083E0,-1.390159149E0,9.267977142E0,2.645149384E0
2.855258083E0,-1.572480011E0,9.295669556E0,2.533182220E0
2.865313083E0,-1.818418579E0,9.196725311E0,2.462978210E0
2.875367083E0,-2.093546448E0,9.127269745E0,2.452949066E0
2.885422083E0,-2.359243927E0,9.180558929E0,2.445165253E0
2.895477083E0,-2.480940857E0,9.330247650E0,2.444416809E0
2.905531083E0,-2.476001129E0,9.422904968E0,2.600242767E0
2.915586083E0,-2.298170929E0,9.489366760E0,2.699037323E0
2.925640083E0,-2.016157379E0,9.524693298E0,2.677631836E0
2.935695083E0,-1.877096558E0,9.587861938E0,2.627635803E0
2.945750083E0,-1.738784180E0,9.568701782E0,2.534679108E0
2.955804083E0,-1.905238037E0,9.468110962E0,2.547851715E0
2.965859083E0,-2.178719330E0,9.373507690E0,2.541115723E0
2.975914083E0,-2.297422485E0,9.266031189E0,2.466570740E0
2.985968083E0,-2.157912598E0,9.252259827E0,2.407892761E0
2.996023083E0,-1.898951111E0,9.362131348E0,2.420316925E0
3.006077083E0,-1.869312744E0,9.587861938E0,2.631976776E0
3.016132083E0,-1.854792938E0,9.661808167E0,2.808459778E0
3.026187083E0,-1.835932159E0,9.532626801E0,2.796035614E0
3.036241083E0,-1.780996399E0,9.355694733E0,2.567311249E0
3.046296083E0,-1.773811340E0,9.166937256E0,2.358944550E0
3.056350083E0,-1.841770020E0,9.018745422E0,2.330803070E0
3.066405083E0,-2.023342438E0,8.972940674E0,2.331701202E0
3.076460083E0,-2.180964661E0,8.960666199E0,2.432741089E0
3.086514083E0,-2.036664734E0,8.885672150E0,2.483036499E0
3.096569083E0,-1.852547607E0,8.817414093E0,2.372416534E0
3.106623083E0,-1.799557800E0,8.822653198E0,2.256707153E0
3.116678083E0,-1.733096008E0,8.868757324E0,2.284698944E0
3.126733083E0,-1.726809082E0,8.962612152E0,2.462678833E0
3.136787083E0,-1.684896240E0,9.027577057E0,2.603086853E0
3.146842083E0,-1.601220245E0,9.104517059E0,2.644400940E0
3.156897083E0,-1.553619232E0,9.093290405E0,2.567311249E0
3.166951083E0,-1.570384369E0,9.048533478E0,2.534978485E0
3.177006083E0,-1.589245148E0,9.044042816E0,2.577639771E0
3.187060083E0,-1.564995575E0,9.106313324E0,2.565215607E0
3.197115083E0,-1.449735260E0,9.179960175E0,2.579286346E0
3.207170083E0,-1.553319855E0,9.268575897E0,2.643951874E0
3.217224083E0,-1.665586395E0,9.289532318E0,2.628084869E0
3.227279083E0,-1.728455658E0,9.186396790E0,2.502196655E0
3.237333083E0,-1.802252197E0,9.040599976E0,2.316732330E0
3.247388083E0,-1.915865936E0,8.990753632E0,2.149080963E0
3.257443083E0,-2.095193024E0,9.023535461E0,2.151775360E0
3.267497083E0,-2.304757233E0,9.149723053E0,2.311193848E0
3.277552083E0,-2.362836456E0,9.242829437E0,2.486479340E0
3.287606083E0,-2.420765991E0,9.259893951E0,2.567610626E0
3.297661083E0,-2.342329102E0,9.303153992E0,2.489323425E0
3.307716083E0,-2.177970886E0,9.247469788E0,2.340981903E0
3.317770083E0,-2.229314117E0,9.181606750E0,2.344424744E0
3.327825083E0,-2.398911438E0,9.271120605E0,2.438728638E0
3.337880083E0,-2.475851440E0,9.385482788E0,2.508932648E0
3.347934083E0,-2.355651398E0,9.415869598E0,2.557731171E0
3.357989083E0,-2.164947968E0,9.418264618E0,2.581082611E0
3.368043083E0,-1.977088623E0,9.380393372E0,2.520009613E0
3.378098083E0,-1.840273132E0,9.402846680E0,2.421664124E0
3.388153083E0,-1.835632782E0,9.520352325E0,2.430346069E0
3.398207083E0,-1.897304535E0,9.663903809E0,2.426454163E0
3.408262083E0,-1.785187683E0,9.989626465E0,2.118394775E0
