"Time (s)","X (rad/s)","Y (rad/s)","Z (rad/s)"
1.179016661E-2,-5.594158545E-2,6.872620434E-2,2.374183238E-1
2.176516666E-2,-1.243443117E-1,8.614404500E-2,1.935784519E-1
3.174016671E-2,-1.464629173E-1,1.212820485E-1,1.704675406E-1
4.171416676E-2,-1.319434345E-1,1.239388958E-1,1.855432242E-1
5.168916681E-2,-1.054737344E-1,1.214019731E-1,2.372197360E-1
6.166416663E-2,-6.895087659E-2,1.027047113E-1,2.728970051E-1
7.163816667E-2,-3.165384009E-2,7.527148724E-2,2.853907049E-1
8.161316672E-2,7.598346099E-3,4.487208277E-2,2.633712888E-1
9.158816678E-2,5.485427380E-2,5.218192935E-2,2.077842057E-1
1.015631666E-1,9.618541598E-2,6.455376744E-2,1.390509456E-1
1.115371666E-1,1.394756287E-1,9.115155786E-2,7.438700646E-2
1.215121667E-1,1.664893180E-1,1.403523088E-1,1.252669841E-2
1.314871667E-1,1.729522794E-1,1.487924010E-1,-2.560710534E-2
1.414611668E-1,1.685685068E-1,1.670779884E-1,-3.216627240E-2
1.514361666E-1,1.710039675E-1,1.693429947E-1,-2.390700951E-2
1.614111667E-1,1.897298545E-1,1.509215534E-1,-1.809932105E-2
1.713851667E-1,2.191857547E-1,1.441571265E-1,-1.192425005E-2
1.813601668E-1,2.558695972E-1,1.446523964E-1,-3.322373144E-3
1.913351668E-1,2.854493260E-1,1.243982539E-1,1.641298272E-2
2.013091666E-1,3.085802495E-1,8.067970723E-2,4.942332953E-2
2.112841667E-1,3.289968371E-1,1.924777031E-2,1.027384847E-1
2.212591667E-1,3.415611684E-1,-4.949518666E-2,1.645832062E-1
2.312331668E-1,3.405800462E-1,-1.144907027E-1,2.118220776E-1
2.412081666E-1,3.293457925E-1,-1.421270370E-1,2.219393849E-1
2.511831666E-1,3.157663345E-1,-1.187213212E-1,2.005355507E-1
2.611571667E-1,2.929695547E-1,-7.547020912E-2,1.470016241E-1
2.711321667E-1,2.679219842E-1,-3.423276171E-2,9.099667519E-2
2.811071668E-1,2.435337752E-1,-1.043435745E-2,4.179483652E-2
2.910821666E-1,2.249025702E-1,-1.109189168E-2,-1.030787826E-4
3.010561666E-1,2.092209458E-1,-1.964565553E-2,-1.135533303E-2
3.110311667E-1,1.995536834E-1,-3.398651257E-2,4.912167788E-5
3.210061667E-1,1.845523119E-1,-3.830363229E-2,2.176859416E-2
3.309801668E-1,1.611732095E-1,-3.996863961E-2,4.138730466E-2
3.409551666E-1,1.280554384E-1,-3.887544945E-2,4.922525585E-2
3.509301667E-1,8.219341189E-2,-3.058982268E-2,2.685310692E-2
3.609041667E-1,4.158589244E-2,-1.859033108E-2,8.145394735E-3
3.708791668E-1,1.343175303E-2,1.735446975E-3,-1.228931826E-3
3.808541666E-1,3.311120672E-4,1.755497791E-2,-2.220558375E-2
3.908281666E-1,-6.091900170E-3,4.102994502E-2,-4.754902422E-2
4.008031667E-1,-9.146681987E-3,5.641379580E-2,-6.651592255E-2
4.107781667E-1,-2.637650352E-3,6.979857385E-2,-7.732489705E-2
4.207521668E-1,1.021912508E-2,6.871480495E-2,-6.858080626E-2
4.307271666E-1,2.191413008E-2,6.542792916E-2,-4.335667565E-2
4.407021666E-1,2.658647485E-2,6.058286130E-2,-1.101158466E-2
4.506771667E-1,2.404502034E-2,4.313063622E-2,2.041025460E-2
4.606511667E-1,1.572112367E-2,3.372505307E-2,4.499728978E-2
4.706261668E-1,-2.613047254E-4,3.130024672E-2,7.121504098E-2
4.806011666E-1,-1.393603254E-2,3.340744972E-2,8.893086016E-2
4.905751667E-1,-2.640788257E-2,3.954097629E-2,9.287713468E-2
5.005501667E-1,-2.629217133E-2,4.415926337E-2,8.035028726E-2
5.105251668E-1,-3.007385880E-2,4.913271964E-2,5.620580167E-2
5.204991668E-1,-3.742158785E-2,5.681242794E-2,3.486036509E-2
5.304741666E-1,-3.977688774E-2,6.331213564E-2,2.897850797E-2
5.404491667E-1,-2.181272022E-2,6.756298244E-2,2.880693041E-2
5.504231667E-1,9.234676138E-3,6.747642905E-2,2.944768779E-2
5.603981668E-1,4.131716490E-2,6.281359494E-2,2.603571489E-2
5.703731666E-1,5.968525261E-2,5.045839399E-2,3.861408681E-2
5.803471666E-1,5.862472579E-2,3.578038886E-2,4.991208762E-2
5.903221667E-1,5.069729313E-2,4.978328571E-2,5.300507694E-2
6.002971667E-1,2.027910948E-2,6.575849652E-2,3.747412562E-2
6.102721668E-1,-3.094785847E-2,5.909873545E-2,2.103283443E-2
6.202461666E-1,-9.019404650E-2,3.910155594E-2,2.208684385E-2
6.302211666E-1,-1.198771074E-1,2.736740187E-2,4.591494426E-2
6.401961667E-1,-1.238277107E-1,3.708625212E-3,6.879290193E-2
6.501701667E-1,-1.142818779E-1,-1.550714672E-2,9.843868017E-2
6.601451668E-1,-1.057939902E-1,-2.779513597E-2,1.238016933E-1
6.701201666E-1,-1.024815440E-1,-4.358448461E-2,1.279341131E-1
6.800941667E-1,-1.050860435E-1,-4.860150069E-2,1.223256961E-1
6.900691667E-1,-9.401475638E-2,-5.108543485E-2,1.222838834E-1
7.000441668E-1,-7.114759088E-2,-5.258330703E-2,1.291498542E-1
7.100181668E-1,-2.744218893E-2,-4.188991338E-2,1.259311438E-1
7.199931666E-1,2.365534194E-2,-2.620715275E-2,9.427362680E-2
7.299681667E-1,6.815862656E-2,6.431218237E-3,5.114213377E-2
7.399421667E-1,8.433880657E-2,4.075106978E-2,4.486879334E-3
7.499171668E-1,6.705808640E-2,7.770109177E-2,-3.991201147E-2
7.598921666E-1,3.230339661E-2,9.997906536E-2,-7.778756320E-2
7.698671666E-1,-2.463498712E-2,1.191373095E-1,-7.831113786E-2
7.798411667E-1,-7.553732395E-2,1.302172691E-1,-5.208352581E-2
7.898161667E-1,-1.100825220E-1,1.286348253E-1,-1.064607129E-2
7.997911668E-1,-1.091622040E-1,1.138895750E-1,3.975298628E-2
8.097651666E-1,-8.045705408E-2,8.227066696E-2,7.870944589E-2
8.197401667E-1,-3.814000636E-2,8.023319393E-2,9.340370446E-2
8.297151667E-1,-6.596994121E-3,1.140755862E-1,7.685748488E-2
8.396895416E-1,-6.559169386E-3,1.518376619E-1,4.597440362E-2
8.496645417E-1,-2.854889072E-2,1.763020009E-1,3.304171376E-3
8.596395417E-1,-4.293392599E-2,1.916135550E-1,-2.877759933E-2
8.696135418E-1,-3.716285527E-2,1.896569282E-1,-3.510953113E-2
8.795885418E-1,-1.238135714E-2,1.830279231E-1,-2.150583826E-2
8.895635416E-1,2.060854994E-2,1.873265356E-1,5.203685723E-4
8.995375417E-1,4.444492236E-2,1.824978143E-1,2.133749798E-2
9.095125417E-1,5.623606592E-2,1.902753115E-1,2.871338837E-2
9.194875418E-1,6.724312901E-2,2.058925331E-1,2.100034244E-2
9.294625416E-1,7.068978995E-2,2.212690860E-1,-4.631369375E-4
9.394365416E-1,7.834565639E-2,2.351804376E-1,1.096669352E-3
9.494115417E-1,9.641972929E-2,2.575928271E-1,1.072692685E-2
9.593865417E-1,1.181353182E-1,2.651331723E-1,1.138879452E-2
9.693605418E-1,1.381748021E-1,2.703891993E-1,7.846199442E-4
9.793355416E-1,1.545917392E-1,2.896702290E-1,-2.400608361E-2
9.893105417E-1,1.646864563E-1,3.130408227E-1,-6.574261189E-2
9.992845417E-1,1.721317172E-1,3.250829577E-1,-1.105421707E-1
1.009259542E0,1.631374359E-1,3.162865341E-1,-1.226017624E-1
1.019234542E0,1.458072960E-1,2.809916735E-1,-8.308137953E-2
1.029208542E0,1.246953458E-1,2.418658435E-1,-1.654257253E-2
1.039183542E0,1.001559719E-1,2.013988346E-1,4.347835481E-2
1.049158542E0,6.921856850E-2,1.746567041E-1,9.562464803E-2
1.059132542E0,3.806347772E-2,1.566808522E-1,1.184214354E-1
1.069107542E0,3.340916708E-3,1.389279515E-1,1.163830534E-1
1.079082542E0,-2.138568833E-2,1.185796559E-1,1.022429317E-1
1.089057542E0,-3.660751879E-2,9.788556397E-2,1.024684981E-1
1.099031542E0,-4.472059757E-2,7.938461751E-2,1.122854501E-1
1.109006542E0,-3.611778840E-2,6.600861996E-2,1.225008070E-1
1.118981542E0,-1.871635392E-2,5.044069514E-2,1.193587333E-1
1.128955542E0,1.273597823E-3,4.583582282E-2,1.148619875E-1
1.138930542E0,1.490565762E-2,3.758684173E-2,1.052806005E-1
1.148905542E0,1.841916516E-2,3.764436767E-2,8.431779593E-2
1.158879542E0,2.008887194E-2,3.739214689E-2,5.483666807E-2
1.168854542E0,1.524724625E-2,3.403283283E-2,4.102125391E-2
1.178829542E0,8.108010516E-3,1.889955439E-2,4.192233458E-2
1.188803542E0,-2.891111188E-3,7.968610153E-3,5.915804952E-2
1.198778542E0,-1.939326711E-2,-1.278509572E-2,7.800669968E-2
1.208753542E0,-3.782021254E-2,-2.876912244E-2,9.206339717E-2
1.218728542E0,-5.307351798E-2,-4.198818654E-2,9.371569753E-2
1.228702542E0,-6.006165221E-2,-5.466776341E-2,9.090925753E-2
1.238677542E0,-5.520153046E-2,-5.622226745E-2,8.914238214E-2
1.248652542E0,-4.391904920E-2,-5.775837600E-2,8.086820692E-2
1.258626542E0,-3.024451062E-2,-5.858922377E-2,7.141291350E-2
1.268601542E0,-2.434001677E-2,-6.567803025E-2,6.354274601E-2
1.278576542E0,-2.463843301E-2,-6.242173538E-2,6.032710895E-2
1.288550542E0,-1.695388183E-2,-5.451427773E-2,5.840803683E-2
1.298525542E0,-4.504116718E-3,-4.388994724E-2,5.177117139E-2
1.308500542E0,2.655792050E-3,-3.269082308E-2,3.585638851E-2
1.318474542E0,1.134999935E-2,-2.675976604E-2,1.696758531E-2
1.328449542E0,1.254123077E-2,-2.795472741E-2,1.479551196E-2
1.338424542E0,1.451591402E-2,-3.610313311E-2,2.260689437E-2
1.348398542E0,9.849256836E-3,-3.965578973E-2,2.436617948E-2
1.358373542E0,2.471572720E-3,-4.118593037E-2,1.345620491E-2
1.368348542E0,-9.659658186E-3,-3.529421985E-2,1.381966053E-3
1.378323542E0,-2.291088551E-2,-3.007911518E-2,-3.594549373E-3
1.388297542E0,-3.395448253E-2,-2.066111192E-2,-9.468950331E-3
1.398272542E0,-3.491643444E-2,-1.916965470E-2,-1.256087888E-2
1.408247542E0,-3.218190372E-2,-8.958296850E-3,-1.532230992E-2
1.418221542E0,-2.326765470E-2,1.017879695E-4,-7.480707951E-3
1.428196542E0,-1.879807189E-2,-7.632067427E-4,-3.310729750E-3
1.438171542E0,-1.626293361E-2,5.973130465E-4,-5.200313404E-3
1.448145542E0,-1.354224887E-2,2.340085804E-3,-4.200030118E-3
1.458120542E0,-1.716570556E-2,1.088936627E-2,-4.783585668E-3
1.468095542E0,-2.162969671E-2,1.256902330E-2,-1.089926902E-2
1.478070542E0,-2.931485325E-2,1.922388561E-2,-2.369435877E-2
1.488044542E0,-3.863671422E-2,2.949303202E-2,-3.853162751E-2
1.498019542E0,-3.924084455E-2,3.282593936E-2,-5.066565424E-2
1.507994542E0,-4.250401631E-2,2.796380594E-2,-5.084275454E-2
1.517968542E0,-4.624868929E-2,1.905579865E-2,-2.811507694E-2
1.527943542E0,-5.665179342E-2,5.542919040E-3,-7.417737506E-4
1.537918542E0,-6.465734541E-2,-6.235205568E-3,1.792918518E-2
1.547892542E0,-7.339623570E-2,-6.130010821E-3,2.040752396E-2
1.557867542E0,-8.115676045E-2,-2.467743121E-3,4.664313979E-3
1.567842542E0,-8.458238840E-2,2.986943349E-3,-1.676774025E-2
1.577816542E0,-8.074104041E-2,1.095091924E-2,-3.313313425E-2
1.587791542E0,-7.441363484E-2,9.869676083E-3,-3.993644565E-2
1.597766542E0,-6.937991083E-2,5.776837468E-3,-2.873072773E-2
1.607740542E0,-5.851874501E-2,-3.662737086E-3,-1.129128411E-2
1.617715542E0,-5.758320540E-2,-7.726961747E-3,2.896441147E-3
1.627690542E0,-6.000508368E-2,-1.390389726E-2,7.793728262E-3
1.637665542E0,-6.256814301E-2,-4.975932650E-3,-1.062676124E-2
1.647639542E0,-6.696688384E-2,2.812216058E-3,-3.232646361E-2
1.657614542E0,-7.249180228E-2,6.745878607E-3,-3.895407915E-2
1.667589542E0,-7.488385588E-2,8.685726672E-3,-3.371350840E-2
1.677563542E0,-7.067700475E-2,3.812121227E-3,-2.896628715E-2
1.687538542E0,-5.667410418E-2,-1.074658148E-2,-2.876894735E-2
1.697513542E0,-5.254120007E-2,-2.836199105E-2,-2.482500672E-2
1.707487542E0,-5.578093603E-2,-3.623935580E-2,-1.226207707E-2
1.717462542E0,-7.409229875E-2,-4.919995368E-2,2.719536889E-3
1.727437542E0,-9.600452334E-2,-5.215419829E-2,7.102567237E-3
1.737411542E0,-1.097600907E-1,-4.824379086E-2,6.843244191E-3
1.747386542E0,-1.031309515E-1,-3.967666626E-2,-2.258503810E-4
1.757361542E0,-8.379526436E-2,-2.834400348E-2,-1.181093417E-2
1.767336542E0,-5.275639519E-2,-3.357072175E-2,-2.091788128E-2
1.777310542E0,-3.630036116E-2,-3.367155790E-2,-2.287857421E-2
1.787285542E0,-3.186593205E-2,-3.436025232E-2,-1.998425089E-2
1.797260542E0,-3.357940912E-2,-4.523340613E-2,-1.825426146E-2
1.807234542E0,-5.058635399E-2,-4.731200635E-2,-1.074601151E-2
1.817209542E0,-6.238570809E-2,-3.958764672E-2,-9.812101722E-3
1.827184542E0,-6.324590743E-2,-4.150272161E-2,-1.403800584E-2
1.837158458E0,-5.481254682E-2,-3.532110900E-2,-1.832908951E-2
1.847133458E0,-5.434276536E-2,-3.085099161E-2,-1.767554879E-2
1.857108458E0,-3.965084627E-2,-2.685705945E-2,-1.888468862E-2
1.867082458E0,-2.914547548E-2,-2.602988109E-2,-1.754139178E-2
1.877057458E0,-3.028895333E-2,-3.105130047E-2,6.473956164E-4
1.887032458E0,-3.287648037E-2,-3.412432224E-2,1.380021498E-2
1.897007458E0,-3.982566297E-2,-3.434818238E-2,9.993159212E-3
1.906981458E0,-5.092465505E-2,-2.512299083E-2,-1.280800439E-3
1.916956458E0,-6.253530085E-2,-2.311528288E-2,-1.967651956E-2
1.926931458E0,-7.164517790E-2,-2.810391784E-2,-3.424987197E-2
1.936905458E0,-6.913664937E-2,-3.580411896E-2,-3.458688781E-2
1.946880458E0,-5.987603590E-2,-4.046278447E-2,-1.930300519E-2
1.956855458E0,-3.596228734E-2,-3.301378340E-2,-3.251472488E-3
1.966829458E0,-1.127558202E-2,-2.944274992E-2,-9.190320969E-3
1.976804458E0,1.077289227E-2,-2.836884931E-2,-3.619603440E-2
1.986779458E0,1.931791008E-2,-2.246781625E-2,-6.881469488E-2
1.996753458E0,2.303119376E-2,-1.745564677E-2,-8.361655474E-2
2.006728458E0,1.651150919E-2,-1.506572682E-2,-8.296248317E-2
2.016703458E0,9.899212047E-3,-2.195181139E-2,-6.006655097E-2
2.026678458E0,1.331524830E-2,-3.060868382E-2,-3.358567879E-2
2.036652458E0,1.270843856E-2,-5.005265027E-2,-1.917597465E-2
2.046627458E0,1.196674816E-2,-5.328386277E-2,-2.434012480E-3
2.056602458E0,8.359893225E-3,-5.680152774E-2,7.672018372E-3
2.066576458E0,-3.579058219E-3,-5.859436840E-2,1.473312359E-2
2.076551458E0,-1.162222028E-2,-5.214394629E-2,1.409676298E-2
2.086526458E0,-1.765135117E-2,-4.436990991E-2,-2.648648806E-4
2.096500458E0,-2.352545969E-2,-2.851080894E-2,-3.351256996E-2
2.106475458E0,-1.885267720E-2,-1.418246981E-2,-6.081396714E-2
2.116450458E0,-1.704725437E-2,-6.038206629E-3,-6.524739414E-2
2.126424458E0,-1.537425723E-2,-1.693346538E-2,-4.361826926E-2
2.136399458E0,-1.859975234E-2,-3.385967761E-2,-1.636973396E-2
2.146374458E0,-2.639402822E-2,-4.549768940E-2,8.953198791E-3
2.156349458E0,-4.191918671E-2,-5.145139247E-2,1.354209147E-2
2.166323458E0,-4.992331564E-2,-4.190821946E-2,4.099320620E-3
2.176298458E0,-5.399989337E-2,-2.731879801E-2,-1.099700481E-2
2.186273458E0,-4.167451710E-2,-1.769866236E-2,-2.249626815E-2
2.196247458E0,-1.859901994E-1,-5.797063932E-3,-1.676135883E-2
2.206222458E0,-2.100398690E-1,-5.162446946E-2,-5.485652946E-4
2.216197458E0,-1.539391279E-1,-1.782854088E-2,1.707550324E-2
2.226171458E0,-1.008471400E-1,-2.108345553E-2,2.376643009E-2
2.236146458E0,-6.606127322E-2,-1.341618691E-2,2.920573950E-2
2.246121458E0,-3.715373203E-2,-3.454996645E-2,1.549046114E-2
2.256096458E0,-1.970197260E-2,-4.528512061E-2,9.513461962E-3
2.266070458E0,1.168524660E-2,-3.175040334E-2,6.592501886E-4
2.276045458E0,9.133627266E-2,6.146809086E-3,-3.429354355E-2
2.286020458E0,1.723307222E-1,4.679490253E-2,-8.732799441E-2
2.295994458E0,2.099982202E-1,8.503009379E-2,-1.363847554E-1
2.305969458E0,1.704087257E-1,8.013893664E-2,-1.523085982E-1
2.315944458E0,7.872435451E-2,6.183129922E-2,-1.228593588E-1
2.325918458E0,-1.355391089E-2,3.640317172E-2,-5.684332550E-2
2.335893458E0,-8.908165991E-2,6.821585819E-3,2.782995254E-2
2.345868458E0,-1.505008042E-1,-1.850294508E-2,1.035516113E-1
2.355842458E0,-1.908540726E-1,-2.216274478E-2,1.300902814E-1
2.365817458E0,-2.313716710E-1,-3.475869820E-2,1.334527880E-1
2.375792458E0,-3.028111160E-1,-4.881455749E-2,1.404844522E-1
2.385767458E0,-4.409024119E-1,-6.660926342E-2,1.513075382E-1
2.395741458E0,-7.060068846E-1,-1.153132766E-1,1.670514792E-1
2.405716458E0,-4.476919472E-1,8.640983105E-1,-9.640997276E-3
2.415691458E0,-5.361859202E-1,-8.994664252E-2,-3.075639717E-2
2.425665458E0,-1.858984679E-1,3.385412320E-2,-1.930675507E-1
2.435640458E0,4.204022884E-2,1.418344975E-1,-2.542476058E-1
2.445615458E0,2.171190977E-1,-3.291334212E-2,-2.140722275E-1
2.455589458E0,2.228307724E-1,-1.977182925E-2,-1.273799390E-1
2.465564458E0,2.094486505E-1,-6.116347760E-2,-1.526051313E-1
2.475539458E0,1.605695188E-1,-5.796369165E-2,-1.657643467E-1
2.485514458E0,1.369749755E-1,-1.300677657E-3,-1.336966902E-1
2.495488458E0,1.084408015E-1,4.188571125E-3,-1.127458736E-1
2.505463458E0,5.427769944E-2,-8.579688147E-3,-6.856908649E-2
2.515438458E0,1.836892217E-2,-1.857599989E-2,-1.149375364E-2
2.525412458E0,1.176774502E-2,-1.592216082E-2,3.068752214E-2
2.535387458E0,1.411584206E-2,-1.488216221E-3,5.088307336E-2
2.545362458E0,1.728447154E-2,-6.082435139E-3,5.511297286E-2
2.555336458E0,9.137932211E-3,-9.586509317E-3,5.283031240E-2
2.565311458E0,-6.914796541E-5,-1.439111773E-2,4.602167383E-2
2.575286458E0,-1.671848446E-2,-9.608009830E-3,3.620079905E-2
2.585260458E0,-3.895987570E-2,-1.016887184E-2,2.450099587E-2
2.595235458E0,-4.010504857E-2,-1.683364622E-3,8.542539552E-3
2.605210458E0,-2.139181271E-2,6.199859083E-3,-1.683605276E-2
2.615185458E0,-1.103658415E-2,-1.593315043E-2,-3.250535112E-3
2.625159458E0,4.448356340E-4,-1.668549329E-2,1.982229203E-2
2.635134458E0,1.034449227E-2,-9.870382026E-3,2.338466607E-2
2.645109458E0,1.266463846E-2,-8.522288874E-3,1.863544993E-2
2.655083458E0,2.101509273E-2,3.571841866E-3,4.160243087E-3
2.665058458E0,1.573750563E-2,-1.645023935E-3,-1.226266380E-3
2.675033458E0,1.274952292E-2,1.726285554E-2,3.353767795E-3
2.685007458E0,1.845934056E-2,2.263791300E-2,-1.506465487E-2
2.694982458E0,2.818858251E-2,2.254606411E-2,-4.303176701E-2
2.704957458E0,3.534023464E-2,1.721281931E-2,-6.288670003E-2
2.714931458E0,4.744250700E-2,1.430156268E-2,-8.296594024E-2
2.724906458E0,5.984671414E-2,2.851858176E-2,-1.084081829E-1
2.734881458E0,6.719906628E-2,1.698940992E-2,-1.175795048E-1
2.744856458E0,8.746492118E-2,2.752540633E-2,-1.120201573E-1
2.754830458E0,1.040786058E-1,2.526828088E-2,-1.026501507E-1
2.764805458E0,1.074291319E-1,1.296261139E-2,-9.790360928E-2
2.774780458E0,1.012875140E-1,9.129192680E-3,-1.033650935E-1
2.784754458E0,8.520948142E-2,-3.864370286E-3,-1.031072959E-1
2.794729458E0,6.991786510E-2,-1.186382957E-2,-1.037366018E-1
2.804704458E0,6.620968133E-2,-1.852865703E-2,-1.003967300E-1
2.814678458E0,7.261969149E-2,-1.286012772E-2,-1.030298546E-1
2.824653458E0,7.154111564E-2,-1.106302626E-2,-1.007256880E-1
2.834628458E0,5.225510150E-2,-1.198416390E-2,-9.476161003E-2
2.844603083E0,2.921529673E-2,-1.226432808E-2,-9.682396054E-2
2.854577083E0,1.457178127E-2,-1.852652617E-2,-9.748376161E-2
2.864552083E0,1.249025483E-2,-1.303482242E-2,-1.023272574E-1
2.874527083E0,1.360692456E-2,-1.025415398E-2,-1.090405509E-1
2.884501083E0,1.009847596E-2,-1.909771375E-2,-9.744967520E-2
2.894476083E0,7.532442454E-3,-1.652207598E-2,-6.592842937E-2
2.904451083E0,-1.087399572E-2,-1.466585323E-2,-3.955807537E-2
2.914425083E0,-2.821360342E-2,-1.031632163E-2,-2.530291863E-2
2.924400083E0,-3.803107888E-2,-1.258111559E-3,-3.983818367E-2
2.934375083E0,-4.187376425E-2,-1.403901447E-2,-5.659612268E-2
2.944349083E0,-3.590189293E-2,-1.788142323E-2,-4.560206085E-2
2.954324083E0,-2.727759257E-2,-1.343711372E-2,-3.435918689E-2
2.964299083E0,-1.996614970E-2,-1.717166416E-2,-2.687304281E-2
2.974274083E0,-4.983408377E-3,-1.813620888E-2,-3.093149886E-2
2.984248083E0,7.591661997E-4,-2.440475672E-2,-3.361543268E-2
2.994223083E0,3.664570395E-3,-2.030460723E-2,-2.924000286E-2
3.004198083E0,7.403115742E-3,-3.196232766E-2,-2.753930725E-2
3.014172083E0,1.056138612E-2,-4.090880603E-2,-4.239127785E-2
3.024147083E0,1.404533349E-2,-2.825133502E-2,-6.123713404E-2
3.034122083E0,2.527315635E-3,-2.560886368E-2,-6.728398800E-2
3.044096083E0,-4.406224471E-3,-9.168638848E-3,-6.340961903E-2
3.054071083E0,-4.071281292E-3,-1.046982966E-2,-5.680038035E-2
3.064046083E0,-2.260864712E-3,-1.329464465E-2,-5.977406725E-2
3.074021083E0,3.483786713E-3,-2.141721174E-2,-7.099176943E-2
3.083995083E0,7.346058264E-4,-2.198846079E-2,-7.898045331E-2
3.093970083E0,-1.545235328E-2,-1.296913344E-2,-7.295558602E-2
3.103945083E0,-3.511314094E-2,6.959833205E-3,-6.305289268E-2
3.113919083E0,-3.452739120E-2,1.402571239E-2,-6.355474889E-2
3.123894083E0,-1.567594148E-2,2.692419849E-2,-6.683257222E-2
3.133869083E0,2.475001849E-3,1.293968223E-2,-5.837824568E-2
3.143843083E0,2.084895037E-2,-1.268631872E-2,-4.774823785E-2
3.153818083E0,2.648431435E-2,-1.784441806E-2,-3.671941906E-2
3.163793083E0,1.338342577E-2,-1.997867599E-2,-2.509711497E-2
3.173767083E0,-1.784206484E-3,-1.935000345E-2,-1.948383823E-2
3.183742083E0,-1.055985503E-2,-1.527297031E-2,-2.247110754E-2
3.193717083E0,-5.516632460E-3,-1.765416563E-2,-1.533836126E-2
3.203692083E0,6.004735362E-3,-1.290548407E-2,-8.646901697E-3
3.213666083E0,1.267140824E-2,-1.538294088E-2,1.720255008E-3
3.223641083E0,9.333135560E-3,-1.096662041E-2,9.382169694E-3
3.233616083E0,-3.860322468E-4,-4.939449951E-3,2.666996326E-3
3.243590083E0,-1.324750297E-2,7.454369217E-3,-9.567033499E-3
3.253565083E0,-2.784103528E-2,1.569517888E-2,-1.133623160E-2
3.263540083E0,-3.578498214E-2,1.327596232E-2,-1.209549885E-2
