"Time (s)","X (rad/s)","Y (rad/s)","Z (rad/s)"
8.610333345E-3,-6.554529667E-1,-1.134654284E-1,2.548304200E-1
1.858333332E-2,-8.290679455E-1,-3.609463274E-1,2.650580108E-1
2.855633333E-2,-1.035336018E0,-6.596199274E-1,2.897623777E-1
3.853033335E-2,-1.211736441E0,-8.972036839E-1,3.065501451E-1
4.850333332E-2,-1.346918344E0,-1.017916083E0,3.019420803E-1
5.847633333E-2,-1.457484007E0,-1.110665917E0,2.781182528E-1
6.845033335E-2,-1.583374143E0,-1.204690218E0,2.233992219E-1
7.842333333E-2,-1.718945026E0,-1.354140997E0,1.368169188E-1
8.839733334E-2,-1.871180654E0,-1.552687764E0,1.693682559E-2
9.837033332E-2,-2.050556421E0,-1.789419889E0,-1.178769097E-1
1.083433333E-1,-2.330532789E0,-2.030622244E0,-2.223772407E-1
1.183173333E-1,-2.758693933E0,-2.298650742E0,-2.629957795E-1
1.282903333E-1,-3.240353346E0,-2.312666655E0,-2.568549812E-1
1.382643333E-1,-3.657724142E0,-2.175304890E0,-2.778574526E-1
1.482373333E-1,-3.907069206E0,-1.888900280E0,-2.813337743E-1
1.582103333E-1,-4.009624958E0,-1.411445141E0,-2.189625353E-1
1.681843333E-1,-3.977728367E0,-1.112888813E0,-1.061424911E-1
1.781573333E-1,-3.819674969E0,-6.377076507E-1,4.171994328E-2
1.881303333E-1,-3.559772015E0,1.345270276E-1,3.316231370E-1
1.981043333E-1,-3.235376120E0,7.872672677E-1,6.876350641E-1
2.080773333E-1,-2.862024307E0,1.112390876E0,1.054196715E0
2.180513333E-1,-2.473744869E0,1.141103506E0,1.400583982E0
2.280243333E-1,-2.077915907E0,9.892027974E-1,1.723702669E0
2.379973333E-1,-1.623833776E0,8.770146966E-1,2.032194138E0
2.479713333E-1,-1.050007701E0,8.224275708E-1,2.340039253E0
2.579443333E-1,-4.358112216E-1,8.331640959E-1,2.583025694E0
2.679173333E-1,6.971090287E-2,9.953897595E-1,2.699957132E0
2.778913333E-1,4.845871925E-1,1.189257979E0,2.631503582E0
2.878643333E-1,8.759794831E-1,8.595880866E-1,2.404635668E0
2.978383333E-1,1.220829844E0,1.329453588E-1,2.089241743E0
3.078113333E-1,1.556093216E0,-4.908048809E-1,1.778515458E0
3.177843333E-1,1.941374660E0,-8.048607707E-1,1.462611556E0
3.277583333E-1,2.374899149E0,-9.780844450E-1,1.109337211E0
3.377313333E-1,2.682244301E0,-1.049151540E0,7.514230013E-1
3.477043333E-1,2.775399923E0,-1.060806394E0,2.701019645E-1
3.576783333E-1,2.615444660E0,-9.406726956E-1,-4.634990692E-1
3.676513333E-1,2.300528049E0,-6.871036291E-1,-1.306382537E0
3.776253333E-1,1.998562098E0,-4.483155906E-1,-1.899086356E0
3.875983333E-1,1.811649680E0,-2.795546353E-1,-1.856035948E0
3.975713333E-1,1.737957597E0,-2.936009467E-1,-1.507613540E0
4.075453333E-1,1.738870025E0,-2.902776003E-1,-1.225634813E0
4.175183333E-1,1.808178782E0,-3.849401772E-1,-1.099514484E0
4.274923333E-1,1.897453308E0,-6.957300901E-1,-1.075657129E0
4.374653333E-1,1.918450475E0,-1.233208060E0,-1.133499861E0
4.474383333E-1,1.874891520E0,-1.924435616E0,-1.217324734E0
4.574123333E-1,1.830907345E0,-2.505919456E0,-1.335864186E0
4.673853333E-1,1.828641415E0,-2.842745543E0,-1.492025495E0
4.773583333E-1,1.829153299E0,-2.987641096E0,-1.665526748E0
4.873323333E-1,1.783338189E0,-2.976600409E0,-1.817343116E0
4.973053333E-1,1.687505126E0,-2.930839062E0,-1.875005603E0
5.072783333E-1,1.562751532E0,-2.846359015E0,-1.830123663E0
5.172523333E-1,1.441640735E0,-2.720025301E0,-1.682848930E0
5.272253333E-1,1.294247150E0,-2.506226778E0,-1.451954961E0
5.371993333E-1,9.912167192E-1,-2.248517513E0,-1.066526890E0
5.471723333E-1,5.845210552E-1,-1.948131919E0,-4.695928395E-1
5.571453333E-1,2.287762761E-1,-1.575660825E0,4.736026749E-2
5.671193333E-1,1.999983564E-2,-1.272363901E0,3.156807721E-1
5.770923333E-1,2.581538074E-2,-1.135195971E0,4.015938044E-1
5.870663333E-1,1.433635801E-1,-1.173496366E0,3.604267836E-1
5.970393333E-1,2.763980627E-1,-1.280131221E0,2.430423498E-1
6.070123333E-1,3.724543154E-1,-1.383486509E0,1.453758180E-1
6.169863333E-1,3.969455361E-1,-1.484128118E0,1.439438313E-1
6.269593333E-1,3.089825213E-1,-1.460240245E0,2.913915813E-1
6.369323333E-1,1.860656440E-1,-1.414254904E0,5.800297260E-1
6.469063333E-1,2.011440247E-1,-1.570923924E0,9.413166046E-1
6.568793333E-1,2.197981477E-1,-1.963980079E0,1.218492031E0
6.668523333E-1,2.348168343E-1,-2.552869320E0,1.374620080E0
6.768263333E-1,2.896409333E-1,-3.158932447E0,1.418483734E0
6.867993333E-1,4.023165107E-1,-3.775957823E0,1.370841384E0
6.967733333E-1,5.914168954E-1,-4.574072838E0,1.301094294E0
7.067463333E-1,9.002721906E-1,-5.376399994E0,1.216327667E0
7.167193333E-1,1.299781203E0,-6.034027100E0,1.147537112E0
7.266933333E-1,1.723114491E0,-6.537951469E0,1.010948300E0
7.366663333E-1,2.091729879E0,-6.880879402E0,8.896588087E-1
7.466403333E-1,2.369864225E0,-7.054449558E0,9.194535017E-1
7.566133333E-1,2.563136578E0,-7.151687145E0,9.934816957E-1
7.665863333E-1,2.748072147E0,-7.156632423E0,1.125322580E0
7.765603333E-1,2.889160156E0,-7.148310661E0,1.338165045E0
7.865333333E-1,2.948584795E0,-7.149174690E0,1.667109251E0
7.965063333E-1,2.916319132E0,-7.073793888E0,2.084841251E0
8.064803333E-1,2.832088470E0,-6.903535843E0,2.523640633E0
8.164533333E-1,2.729094505E0,-6.598844528E0,2.924278975E0
8.264273333E-1,2.612544298E0,-6.138233185E0,3.255977392E0
8.364003333E-1,2.489467621E0,-5.523336411E0,3.493932009E0
8.463733333E-1,2.359330654E0,-4.862038612E0,3.525546551E0
8.563473333E-1,2.252451658E0,-4.217998028E0,3.353746891E0
8.663203333E-1,2.155405045E0,-3.632598162E0,3.080681801E0
8.762933333E-1,2.062603951E0,-3.137160063E0,2.794373512E0
8.862673333E-1,1.957484961E0,-2.722606897E0,2.537521601E0
8.962395417E-1,1.814350128E0,-2.252456665E0,2.376286507E0
9.062135417E-1,1.626047969E0,-1.750489116E0,2.332776785E0
9.161865417E-1,1.409632325E0,-1.246630430E0,2.391276360E0
9.261595417E-1,1.171954274E0,-7.640450597E-1,2.486067772E0
9.361335417E-1,8.802156448E-1,-3.752059937E-1,2.527535439E0
9.461065417E-1,5.140094757E-1,1.855021529E-2,2.503585815E0
9.560805417E-1,6.730681658E-2,4.814946949E-1,2.436019182E0
9.660535417E-1,-4.377160966E-1,9.480739832E-1,2.331669092E0
9.760265417E-1,-9.564223289E-1,1.362874031E0,2.232209206E0
9.860005417E-1,-1.403013349E0,1.761629343E0,2.144257784E0
9.959735417E-1,-1.711287260E0,2.057970047E0,2.068312645E0
1.005946542E0,-1.867253542E0,2.142453909E0,1.963289618E0
1.015920542E0,-1.889700532E0,2.011447430E0,1.808001995E0
1.025893542E0,-1.827738643E0,1.768489480E0,1.651522756E0
1.035866542E0,-1.714873075E0,1.466395378E0,1.518281817E0
1.045840542E0,-1.558316708E0,1.170944452E0,1.419152021E0
1.055813542E0,-1.367507100E0,9.373644590E-1,1.372797132E0
1.065787542E0,-1.178755760E0,7.527108788E-1,1.395383835E0
1.075760542E0,-1.041372657E0,6.068149209E-1,1.489370227E0
1.085733542E0,-9.608758688E-1,5.053240061E-1,1.674217224E0
1.095707542E0,-9.314948320E-1,4.445940852E-1,1.956502199E0
1.105680542E0,-9.317138195E-1,3.485811949E-1,2.285232544E0
1.115653542E0,-9.209804535E-1,2.173006833E-1,2.639996529E0
1.125627542E0,-8.854233623E-1,1.122372895E-1,2.929718733E0
1.135600542E0,-8.258047700E-1,5.429942906E-2,3.085410357E0
1.145574542E0,-7.650462389E-1,8.835222572E-2,3.054388046E0
1.155547542E0,-7.268176079E-1,2.049936205E-1,2.854284763E0
1.165520542E0,-7.442165613E-1,3.113369942E-1,2.641655207E0
1.175494542E0,-8.172452450E-1,3.896163404E-1,2.472373962E0
1.185467542E0,-8.923450708E-1,4.598090649E-1,2.317549706E0
1.195441542E0,-9.322898388E-1,5.060466528E-1,2.179178953E0
1.205414542E0,-9.428882599E-1,4.798884392E-1,2.092275620E0
1.215387542E0,-9.169381857E-1,3.782776594E-1,2.050362349E0
1.225361542E0,-8.300979137E-1,2.092353553E-1,2.017720699E0
1.235334542E0,-6.921192408E-1,1.355267689E-2,1.957587123E0
1.245307542E0,-5.129671097E-1,-1.441256553E-1,1.857844114E0
1.255281542E0,-3.292033970E-1,-2.750767767E-1,1.701103330E0
1.265254542E0,-1.624098569E-1,-3.675769567E-1,1.503224134E0
1.275228542E0,-2.591859922E-2,-3.838046491E-1,1.279454947E0
1.285201542E0,4.228359833E-2,-3.563351333E-1,1.044777393E0
1.295174542E0,4.298906773E-2,-3.592478335E-1,8.153492808E-1
1.305148542E0,-1.669885824E-3,-3.964420855E-1,5.840052366E-1
1.315121542E0,-3.438495845E-2,-4.282756448E-1,3.657258451E-1
1.325094542E0,-3.038795479E-2,-4.799761772E-1,1.623540372E-1
1.335068542E0,2.445185930E-2,-5.577471256E-1,-6.126849912E-3
1.345041542E0,1.343808174E-1,-6.077569127E-1,-1.349014342E-1
1.355015542E0,2.823846638E-1,-6.248421669E-1,-2.277709246E-1
1.364988542E0,4.623562992E-1,-6.149083376E-1,-2.968386710E-1
1.374961542E0,6.391677856E-1,-5.454405546E-1,-3.471388519E-1
1.384935542E0,7.976431251E-1,-4.357856512E-1,-3.896115720E-1
1.394908542E0,9.262272120E-1,-3.289960623E-1,-4.270348549E-1
1.404882542E0,1.027374744E0,-2.554605305E-1,-4.635306895E-1
1.414855542E0,1.098239660E0,-2.056074888E-1,-4.933871329E-1
1.424828542E0,1.124306560E0,-1.663566828E-1,-5.165487528E-1
1.434802542E0,1.126281142E0,-7.466432452E-2,-5.189107656E-1
1.444775542E0,1.112024546E0,9.262409061E-2,-4.974606335E-1
1.454748542E0,1.076649308E0,2.877531052E-1,-5.056626201E-1
1.464722542E0,1.023756504E0,4.849353135E-1,-4.848688245E-1
1.474695542E0,9.454501867E-1,6.796281338E-1,-4.346077740E-1
1.484669542E0,8.518005013E-1,8.624796271E-1,-4.095928967E-1
1.494642542E0,7.937348485E-1,1.098077416E0,-4.395151138E-1
1.504615542E0,7.020483017E-1,1.434619784E0,-5.209431648E-1
1.514589542E0,6.012495160E-1,1.892706990E0,-6.343224049E-1
1.524562542E0,5.766167641E-1,2.385237455E0,-7.623631954E-1
1.534535542E0,5.898616910E-1,2.789259434E0,-8.795647025E-1
1.544509542E0,6.144853234E-1,3.157746315E0,-1.014804721E0
1.554482542E0,6.169534922E-1,3.542194366E0,-1.157589316E0
1.564456542E0,5.464041233E-1,3.908100367E0,-1.287713885E0
1.574429542E0,3.821427822E-1,4.475395679E0,-1.452661276E0
1.584402542E0,2.486866415E-1,5.081156254E0,-1.548997998E0
1.594376542E0,2.258617580E-1,5.579651833E0,-1.527859330E0
1.604349542E0,3.997322321E-1,5.993343353E0,-1.513847113E0
1.614322542E0,7.338172793E-1,6.471793652E0,-1.458956718E0
1.624296542E0,1.074073553E0,6.808860302E0,-1.390478015E0
1.634269542E0,1.286972284E0,6.716575146E0,-1.303300261E0
1.644243542E0,1.394731522E0,6.176805973E0,-1.219577312E0
1.654216542E0,1.476723790E0,5.414398193E0,-1.134058118E0
1.664189542E0,1.569455028E0,4.565221310E0,-1.033565164E0
1.674163542E0,1.711629748E0,3.721471310E0,-9.554227591E-1
1.684136542E0,1.897991300E0,3.104342461E0,-9.119249582E-1
1.694110542E0,2.060949802E0,2.776024580E0,-9.122045636E-1
1.704083542E0,2.152565002E0,2.631827354E0,-9.738400578E-1
1.714056542E0,2.195504427E0,2.695165634E0,-1.089403868E0
1.724030542E0,2.197097778E0,2.893551588E0,-1.202959299E0
1.734003542E0,2.178739548E0,3.096623659E0,-1.287816167E0
1.743976542E0,2.182645321E0,3.297884464E0,-1.341752887E0
1.753950542E0,2.223471165E0,3.434171200E0,-1.396600127E0
1.763923542E0,2.312448978E0,3.578189135E0,-1.498145938E0
1.773897542E0,2.444653273E0,3.778958082E0,-1.626280904E0
1.783870542E0,2.612313271E0,3.855386257E0,-1.732371092E0
1.793843542E0,2.750648975E0,3.665745974E0,-1.791589975E0
1.803817542E0,2.918953657E0,3.693668365E0,-1.931690454E0
1.813790542E0,3.209208488E0,3.782460451E0,-2.158432007E0
1.823763542E0,3.432819128E0,3.602910757E0,-2.191653252E0
1.833737542E0,3.616827488E0,3.422209263E0,-2.123600721E0
1.843710542E0,3.732217550E0,3.321058035E0,-2.020258427E0
1.853684542E0,3.624419451E0,3.195316315E0,-1.867195725E0
1.863657542E0,3.217245340E0,3.210558414E0,-1.647038221E0
1.873630542E0,2.833644390E0,3.328449249E0,-1.489563346E0
1.883604542E0,2.563631535E0,3.240745783E0,-1.361725569E0
1.893578167E0,2.354349613E0,3.011308432E0,-1.218045950E0
1.903551167E0,2.197439671E0,3.021740437E0,-1.081487656E0
1.913525167E0,2.071491480E0,3.042660952E0,-9.788027406E-1
1.923498167E0,2.053582191E0,2.983741283E0,-9.795950055E-1
1.933472167E0,2.220234156E0,2.920423508E0,-1.011366248E0
1.943445167E0,2.390548229E0,2.580273628E0,-9.689871669E-1
1.953418167E0,2.512859583E0,2.266368389E0,-8.579402566E-1
1.963392167E0,2.583916664E0,1.962961078E0,-6.639099121E-1
1.973365167E0,2.591614246E0,1.728229523E0,-3.856253326E-1
1.983339167E0,2.515866518E0,1.531339169E0,-2.426150627E-2
1.993312167E0,2.308184385E0,1.270473123E0,4.522637725E-1
2.003285167E0,1.977890849E0,8.894697428E-1,1.076630473E0
2.013259167E0,1.414671659E0,6.849719882E-1,1.658220172E0
2.023232167E0,7.874302268E-1,5.398471951E-1,1.937833548E0
2.033205167E0,2.431264371E-1,8.533135056E-1,1.889121413E0
2.043179167E0,-2.437540293E-1,1.386008024E0,1.727827072E0
2.053152167E0,-6.583123207E-1,1.795657635E0,1.581059456E0
2.063126167E0,-9.995985627E-1,2.061467648E0,1.476684451E0
2.073099167E0,-1.292608500E0,2.269532681E0,1.358574629E0
2.083072167E0,-1.544184923E0,2.475280046E0,1.204003215E0
2.093046167E0,-1.759223461E0,2.766439438E0,1.037231326E0
2.103019167E0,-1.918102741E0,3.144102097E0,7.985782027E-1
2.112992167E0,-1.975857973E0,3.492623806E0,4.996506274E-1
2.122966167E0,-1.997108936E0,3.558344603E0,2.223243266E-1
2.132939167E0,-2.003285646E0,3.257097006E0,5.630392209E-2
2.142913167E0,-2.014781713E0,2.796289921E0,4.492995143E-2
2.152886167E0,-2.070823669E0,2.989475965E0,2.997017466E-2
2.162859167E0,-2.136986017E0,3.751497030E0,1.175769884E-2
2.172833167E0,-2.176539421E0,4.387455940E0,6.643266231E-2
2.182806167E0,-2.195322514E0,4.758610725E0,1.507894248E-1
2.192779167E0,-2.166156292E0,5.102841377E0,2.318448573E-1
2.202753167E0,-2.054285765E0,5.513875008E0,2.794355452E-1
2.212726167E0,-1.868245721E0,5.953330040E0,3.030465841E-1
2.222700167E0,-1.671492100E0,6.396344662E0,2.757450938E-1
2.232673167E0,-1.503850937E0,6.812649250E0,1.386056244E-1
2.242646167E0,-1.330680490E0,7.154756546E0,-1.093428656E-1
2.252620167E0,-1.028541088E0,7.245218277E0,-4.152913392E-1
2.262593167E0,-5.417481661E-1,7.060750484E0,-6.963812113E-1
2.272567167E0,7.072960585E-2,6.575444698E0,-8.907791376E-1
2.282540167E0,5.841237903E-1,5.966942787E0,-1.059763312E0
2.292513167E0,8.786558509E-1,5.573356628E0,-1.253328562E0
2.302487167E0,9.600423574E-1,5.512805462E0,-1.374757051E0
2.312460167E0,8.479768038E-1,5.663191795E0,-1.383966565E0
2.322433167E0,6.430603266E-1,5.831175804E0,-1.319088936E0
2.332407167E0,4.153678119E-1,5.986636639E0,-1.277576089E0
2.342380167E0,1.763575822E-1,6.186297894E0,-1.281248093E0
2.352354167E0,3.897212446E-1,4.152477264E0,-1.056067705E0
2.362327167E0,8.965383172E-1,1.193222284E0,-6.820981503E-1
2.372300167E0,8.224792480E-1,-1.506748497E-1,-2.279873788E-1
2.382274167E0,3.561783433E-1,-3.579137921E-1,4.048689008E-1
2.392247167E0,-2.088674754E-1,-1.583974957E-1,1.108938694E0
2.402220167E0,-6.834171414E-1,-3.601153195E-1,1.629156709E0
2.412194167E0,-1.072642446E0,-6.169793606E-1,1.854922533E0
2.422167167E0,-1.359552741E0,-8.288676739E-1,1.909277558E0
2.432141167E0,-1.536692142E0,-1.030378222E0,1.829450607E0
2.442114167E0,-1.569389820E0,-9.900843501E-1,1.623144865E0
2.452087167E0,-1.394684076E0,-9.232217073E-1,1.285020351E0
2.462061167E0,-9.991199970E-1,-8.917893171E-1,8.856975436E-1
2.472034167E0,-6.033678651E-1,-6.347047687E-1,6.703934669E-1
2.482007167E0,-1.547872573E-1,-3.486894071E-1,7.159260511E-1
2.491981167E0,1.399447769E-1,-2.767470479E-1,9.867436886E-1
2.501954167E0,2.669821978E-1,-4.162474871E-1,1.525574923E0
2.511928167E0,3.217400014E-1,-7.660526037E-1,2.227397680E0
2.521901167E0,4.977836013E-1,-1.213457227E0,3.047244549E0
2.531874167E0,8.811429739E-1,-1.680364132E0,4.501643658E0
2.541848167E0,9.668042064E-1,-2.923276901E0,4.967845917E0
2.551821167E0,6.454868913E-1,-4.051833630E0,4.430840492E0
2.561794167E0,2.198895365E-1,-4.351036549E0,4.198907375E0
2.571768167E0,-1.803063452E-1,-4.271030426E0,3.779323816E0
2.581741167E0,-5.973251462E-1,-4.181962013E0,3.334762335E0
2.591715167E0,-9.952885509E-1,-4.165172100E0,2.968383789E0
2.601688167E0,-1.271334529E0,-4.290752888E0,2.670707226E0
2.611661167E0,-1.358021975E0,-4.414485931E0,2.477667809E0
2.621635167E0,-1.356776953E0,-4.252718449E0,2.485697746E0
2.631608167E0,-1.321015716E0,-4.048802376E0,2.566311836E0
2.641581167E0,-1.250738621E0,-3.886059046E0,2.598467827E0
2.651555167E0,-1.137341499E0,-3.561783314E0,2.531631947E0
2.661528167E0,-9.815061092E-1,-2.972029209E0,2.331018209E0
2.671502167E0,-8.137381673E-1,-2.475572109E0,1.996846676E0
2.681475167E0,-7.096208334E-1,-2.104531527E0,1.682993770E0
2.691448167E0,-6.869024634E-1,-1.714008212E0,1.402658463E0
2.701422167E0,-7.204699516E-1,-1.334673047E0,1.128291368E0
2.711395167E0,-7.759063244E-1,-9.115003347E-1,8.921100497E-1
2.721369167E0,-8.250796199E-1,-4.538327456E-1,7.437512875E-1
2.731342167E0,-8.389791846E-1,-2.214101404E-1,6.910963655E-1
2.741315167E0,-8.133363128E-1,-1.678854078E-1,6.861916184E-1
2.751289167E0,-7.790379524E-1,-1.111022905E-1,6.952341199E-1
2.761262167E0,-7.383031845E-1,-7.388682663E-2,6.800033450E-1
2.771235167E0,-6.899124980E-1,-4.278217256E-2,6.400801539E-1
2.781209167E0,-6.445748210E-1,-2.387025207E-2,5.807260275E-1
2.791182167E0,-6.113129854E-1,-1.764990762E-2,4.811789095E-1
2.801156167E0,-5.949417353E-1,2.660298720E-2,3.509415090E-1
2.811129167E0,-6.042001843E-1,1.028623432E-1,2.084267139E-1
2.821102167E0,-6.234008074E-1,2.180567384E-1,7.391105592E-2
2.831076167E0,-6.390870810E-1,3.336936235E-1,-5.808718503E-2
2.841049167E0,-6.476693153E-1,4.050805569E-1,-1.998733282E-1
2.851022167E0,-6.647849083E-1,4.661415219E-1,-3.418879807E-1
2.860996167E0,-6.909078360E-1,5.402415395E-1,-4.650614560E-1
2.870969167E0,-7.200704813E-1,6.239087582E-1,-5.921970010E-1
2.880943167E0,-7.493458390E-1,7.013276815E-1,-6.954877377E-1
2.890916167E0,-7.682470679E-1,7.516238689E-1,-7.430421710E-1
2.900889167E0,-7.563529015E-1,7.645964622E-1,-7.027885318E-1
2.910863167E0,-7.005019188E-1,7.282118201E-1,-5.845194459E-1
2.920836167E0,-5.870602727E-1,6.136762500E-1,-3.882473111E-1
2.930809167E0,-4.210864604E-1,4.721111059E-1,-1.786962301E-1
2.940783167E0,-2.225518823E-1,3.565804958E-1,1.188596524E-2
2.950756167E0,-4.213018715E-2,2.744201124E-1,1.462973058E-1
2.960730167E0,6.573104113E-2,2.196943760E-1,1.980767250E-1
2.970703167E0,1.059333235E-1,1.722014248E-1,1.945150197E-1
2.980676167E0,1.157437861E-1,1.418748796E-1,1.438692957E-1
2.990650167E0,1.295522600E-1,1.668140590E-1,5.674397573E-2
3.000623167E0,1.314414591E-1,2.674168050E-1,-5.859810114E-2
3.010596167E0,1.199579164E-1,3.680632412E-1,-2.041883171E-1
3.020570167E0,9.625221789E-2,4.481737018E-1,-3.860474527E-1
3.030543167E0,8.276277035E-2,5.039229989E-1,-5.564473867E-1
3.040517167E0,1.077496409E-1,5.401149988E-1,-7.112537622E-1
3.050490167E0,1.824648827E-1,5.476921797E-1,-8.266062140E-1
3.060463167E0,2.798807323E-1,5.450521111E-1,-8.815430999E-1
3.070437167E0,3.849695921E-1,5.357076526E-1,-8.506426811E-1
3.080410167E0,4.873393476E-1,4.942499995E-1,-7.597633600E-1
3.090383167E0,5.815262794E-1,4.524340630E-1,-6.432614923E-1
3.100357167E0,6.572147012E-1,4.691351354E-1,-5.412656665E-1
3.110330167E0,6.842798591E-1,5.189852715E-1,-4.579958022E-1
3.120304167E0,6.576086879E-1,5.558327436E-1,-3.936344683E-1
3.130277167E0,6.073175669E-1,5.480970740E-1,-3.243621588E-1
3.140250167E0,5.509037971E-1,4.925135970E-1,-2.624898553E-1
3.150224167E0,5.009391904E-1,4.022681415E-1,-2.131193727E-1
3.160197167E0,4.865352809E-1,3.176380396E-1,-1.768245697E-1
3.170171167E0,4.857813418E-1,2.165825069E-1,-1.239762828E-1
3.180144167E0,5.005667806E-1,5.745416880E-2,-4.889845103E-2
3.190117167E0,5.064986944E-1,-1.473250836E-1,3.345980495E-2
3.200091167E0,4.934591651E-1,-2.886922657E-1,1.101738587E-1
3.210064167E0,4.517572522E-1,-3.379365206E-1,1.391719580E-1
3.220037167E0,3.959435821E-1,-2.700893283E-1,8.983124793E-2
3.230011167E0,3.358887434E-1,-1.495631635E-1,-1.900921389E-2
3.239984167E0,2.678812146E-1,-5.884097517E-2,-1.533289403E-1
3.249958167E0,1.832387447E-1,-1.854658127E-3,-2.519303560E-1
3.259931167E0,8.532448113E-2,1.052614115E-2,-2.950375378E-1
3.269904167E0,9.284840897E-3,2.242645249E-3,-2.987744808E-1
3.279878167E0,-1.911763474E-2,-3.684994765E-3,-2.740536332E-1
3.289851167E0,9.197226027E-4,8.514679968E-3,-2.428823858E-1
3.299824167E0,2.154444717E-2,4.150062799E-3,-2.047253698E-1
3.309798167E0,1.050963905E-2,-2.015554346E-2,-1.562944651E-1
3.319771167E0,-3.974385560E-2,-2.842412889E-2,-1.084560901E-1
3.329745167E0,-1.165478230E-1,-3.845492750E-2,-7.540306449E-2
3.339718167E0,-1.442070156E-1,3.461473435E-2,-8.233880252E-2
3.349691167E0,-1.716735214E-1,6.680676341E-2,-1.085019633E-1
3.359665167E0,-2.056156993E-1,1.310162991E-1,-1.285026670E-1
