"Time (s)","X (rad/s)","Y (rad/s)","Z (rad/s)"
1.078025000E-2,8.263184689E-3,-8.158735000E-3,5.298318341E-2
2.083725000E-2,-1.254165173E-1,8.833390474E-2,-6.091369316E-3
3.089425000E-2,-2.538349330E-1,2.296660095E-1,-8.146841079E-2
4.095025000E-2,-3.794892132E-1,3.695810437E-1,-1.737744212E-1
5.100725000E-2,-4.401088655E-1,5.163236260E-1,-2.351349890E-1
6.106425000E-2,-4.876108766E-1,5.988803506E-1,-2.665355206E-1
7.112125000E-2,-4.989506304E-1,6.055387855E-1,-2.911487222E-1
8.117725000E-2,-4.441976547E-1,5.981976986E-1,-2.790778279E-1
9.123425000E-2,-3.175872564E-1,5.492333770E-1,-2.423613518E-1
1.012912500E-1,-1.653753072E-1,4.432238340E-1,-1.906356961E-1
1.113472500E-1,-9.780392051E-3,3.158640265E-1,-1.218739375E-1
1.214042500E-1,1.377903521E-1,2.139071524E-1,-5.633323267E-2
1.314612500E-1,2.690234780E-1,1.515170187E-1,2.494663466E-3
1.415182500E-1,3.465540409E-1,1.015084088E-1,5.546815693E-2
1.515742500E-1,3.644827008E-1,1.120894179E-1,7.619101554E-2
1.616312500E-1,2.914239168E-1,1.917238683E-1,7.108414173E-2
1.716882500E-1,1.457865685E-1,2.376370430E-1,3.110556863E-2
1.817442500E-1,-2.060315944E-2,2.878639400E-1,-3.125601262E-2
1.918012500E-1,-1.781898588E-1,3.652961552E-1,-6.885372102E-2
2.018582500E-1,-2.926931679E-1,4.007312953E-1,-5.401189998E-2
2.119142500E-1,-3.328376710E-1,3.892970085E-1,4.300226644E-2
2.219712500E-1,-3.247924447E-1,3.677095771E-1,1.892212778E-1
2.320282500E-1,-2.620227933E-1,2.982735038E-1,3.246869445E-1
2.420852500E-1,-1.671106368E-1,2.280758321E-1,3.887645602E-1
2.521412500E-1,-9.849375486E-2,1.966800988E-1,3.779116571E-1
2.621982500E-1,-8.026976138E-2,1.250298917E-1,3.095698059E-1
2.722552500E-1,-8.033500612E-2,8.554720134E-2,2.025416046E-1
2.823112500E-1,-7.517794520E-2,9.197382629E-2,8.666970581E-2
2.923682500E-1,-5.793024972E-2,1.171031445E-1,2.694644034E-3
3.024252500E-1,-3.713792562E-2,1.396593601E-1,-3.928996995E-2
3.124822500E-1,-1.568642817E-2,1.607758254E-1,-6.182936952E-2
3.225382500E-1,-3.548385575E-4,1.972752213E-1,-1.001379937E-1
3.325952500E-1,4.112815484E-2,1.701999158E-1,-1.259094030E-1
3.426522500E-1,8.964932710E-2,1.158311814E-1,-8.635514230E-2
3.527082500E-1,1.498913616E-1,4.278546572E-2,-6.888280623E-3
3.627652500E-1,1.882185191E-1,-4.864585400E-2,6.315951049E-2
3.728222500E-1,1.706352532E-1,-1.082932055E-1,1.014413834E-1
3.828782500E-1,1.632802784E-1,-8.350342512E-2,1.044087783E-1
3.929352500E-1,1.635164917E-1,1.750217518E-3,8.618849516E-2
4.029922500E-1,1.589875221E-1,6.599578261E-2,2.975397930E-2
4.130492500E-1,1.476038396E-1,1.203410476E-1,-5.861502886E-2
4.231052500E-1,1.462010592E-1,1.896188110E-1,-1.497633457E-1
4.331622500E-1,1.453381926E-1,2.214595675E-1,-2.161479592E-1
4.432192500E-1,1.408829093E-1,2.121962607E-1,-2.594346702E-1
4.532752500E-1,1.370761842E-1,1.832599491E-1,-2.587081492E-1
4.633322500E-1,1.408060193E-1,1.512200981E-1,-2.105217576E-1
4.733892500E-1,1.624977291E-1,1.091149971E-1,-1.178464144E-1
4.834452500E-1,2.084043175E-1,5.548477545E-2,-7.603851147E-3
4.935022500E-1,2.447428703E-1,-1.193447877E-2,7.072557509E-2
5.035592500E-1,2.544855177E-1,-9.640369564E-3,1.077869236E-1
5.136162500E-1,1.285827309E-1,7.753001526E-3,1.249408722E-1
5.236722500E-1,-3.817724064E-2,-5.137885455E-3,1.360233575E-1
5.337292500E-1,-2.017328739E-1,3.024966642E-2,1.432327926E-1
5.437862500E-1,-2.298325002E-1,3.882544860E-2,1.359072924E-1
5.538422500E-1,-1.846743375E-1,5.353115872E-2,9.766615927E-2
5.638992500E-1,-9.827914834E-2,3.784135729E-2,1.184722595E-2
5.739562500E-1,-2.968064509E-2,5.001014099E-2,-8.227048814E-2
5.840132500E-1,-1.608656347E-2,3.570306301E-2,-1.742247194E-1
5.940692500E-1,-4.601223767E-2,3.273576871E-2,-2.259363830E-1
6.041262500E-1,-6.697630137E-2,3.192130104E-2,-2.054950744E-1
6.141832500E-1,-6.196715683E-2,3.370828182E-2,-1.375423819E-1
6.242392500E-1,-5.825835094E-2,2.271166816E-2,-6.912069023E-2
6.342962500E-1,-7.148840278E-2,5.044523161E-3,-4.057534039E-3
6.443532500E-1,-8.082868159E-2,5.741139175E-4,4.368933290E-2
6.544102500E-1,-8.480931073E-2,-3.763376502E-3,5.244847015E-2
6.644662500E-1,-7.706467062E-2,-1.305031683E-2,3.527691588E-2
6.745232500E-1,-4.661035910E-2,-1.005133148E-2,2.676731907E-2
6.845799583E-1,-1.407161448E-2,3.064578923E-4,1.996286958E-2
6.946359583E-1,2.757432405E-3,1.168907527E-2,-1.230026130E-2
7.046929583E-1,-2.762615681E-3,2.819572575E-2,-5.825666711E-2
7.147499583E-1,-9.821058251E-3,5.391280726E-2,-1.051464081E-1
7.248069583E-1,-9.833335876E-3,6.715846807E-2,-1.279870868E-1
7.348629583E-1,2.974604256E-3,7.127571106E-2,-1.131514087E-1
7.449199583E-1,1.377500128E-2,6.486666948E-2,-8.631088585E-2
7.549769583E-1,1.605386660E-2,5.005203933E-2,-5.710346624E-2
7.650329583E-1,3.200007370E-3,3.563672677E-2,-4.765307158E-2
7.750899583E-1,7.264257409E-3,1.686863042E-2,-3.880338743E-2
7.851469583E-1,2.739693224E-2,4.085681401E-3,-1.828007586E-2
7.952029583E-1,5.621473119E-2,-4.373850301E-3,1.618264243E-3
8.052599583E-1,6.510542333E-2,-6.865564268E-3,-1.861686818E-3
8.153169583E-1,5.005723238E-2,8.264442440E-4,-9.846908972E-3
8.253739583E-1,2.609617449E-2,5.619063508E-3,-1.855087280E-2
8.354299583E-1,1.274708007E-2,1.550365239E-2,-2.837047726E-2
8.454869583E-1,9.476031177E-3,1.311116014E-2,-4.085634649E-2
8.555439583E-1,-8.459293284E-3,1.511918381E-2,-4.414321855E-2
8.655999583E-1,-2.639267594E-2,2.165317163E-2,-3.824463114E-2
8.756569583E-1,-4.526889697E-2,3.749951348E-2,-2.997178771E-2
8.857139583E-1,-5.544141680E-2,3.975192830E-2,-2.622460015E-2
8.957709583E-1,-5.207598209E-2,3.958734497E-2,-1.336605940E-2
9.058269583E-1,-4.013280198E-2,3.846924379E-2,-1.388830598E-3
9.158839583E-1,-1.881898940E-2,3.151280433E-2,5.869615357E-3
9.259409583E-1,-1.247572433E-2,2.474496327E-2,1.547873579E-2
9.359969583E-1,-1.538682636E-2,1.830171049E-2,1.305818930E-2
9.460539583E-1,-3.617822006E-2,1.138770767E-2,6.707322784E-3
9.561109583E-1,-6.260529906E-2,2.000143565E-2,-4.468632396E-3
9.661679583E-1,-7.260368764E-2,3.208667412E-2,-1.788905077E-2
9.762239583E-1,-7.575154305E-2,3.985404968E-2,-2.581222169E-2
9.862809583E-1,-6.906922162E-2,4.070162028E-2,-2.675553784E-2
9.963379583E-1,-5.827650055E-2,3.569088131E-2,-2.352805436E-2
1.006393958E0,-5.974443257E-2,3.410923108E-2,-1.134888455E-2
1.016450958E0,-5.898809433E-2,2.886839584E-2,-3.465395421E-3
1.026507958E0,-5.577258021E-2,2.168444358E-2,-7.041543722E-4
1.036563958E0,-4.612474516E-2,1.171543170E-2,4.817111418E-3
1.046620958E0,-3.963479027E-2,3.819656791E-3,3.339878749E-3
1.056677958E0,-4.058926553E-2,5.416488275E-3,-4.388348665E-3
1.066734958E0,-4.911168665E-2,2.140081860E-2,-9.408554062E-3
1.076790958E0,-5.370270833E-2,2.359180152E-2,-1.253377367E-2
1.086847958E0,-4.970133677E-2,2.005075663E-2,-1.810171641E-2
1.096904958E0,-3.664812073E-2,2.191816457E-2,-2.951762266E-2
1.106960958E0,-3.355604410E-2,2.756997757E-2,-4.334378988E-2
1.117017958E0,-3.822270036E-2,4.141895100E-2,-6.690610200E-2
1.127074958E0,-4.442485049E-2,5.279921740E-2,-8.411515504E-2
1.137131958E0,-4.629119486E-2,6.476746500E-2,-7.931081206E-2
1.147187958E0,-5.215926468E-2,6.362102926E-2,-6.539575011E-2
1.157244958E0,-7.156065851E-2,6.265962869E-2,-4.241880029E-2
1.167301958E0,-9.039121866E-2,5.351049080E-2,-2.132753283E-2
1.177357958E0,-9.787789732E-2,3.385582939E-2,1.386119984E-4
1.187414958E0,-1.008873358E-1,2.615570091E-2,5.204259418E-3
1.197471958E0,-9.715145826E-2,2.425846457E-2,4.299050197E-3
1.207528958E0,-1.025298908E-1,3.465183079E-2,1.428885944E-2
1.217584958E0,-1.028137878E-1,4.553537071E-2,2.202960290E-2
1.227641958E0,-9.179797024E-2,3.904333338E-2,1.734774187E-2
1.237698958E0,-8.000922203E-2,3.664888442E-2,1.062112767E-2
1.247754958E0,-7.660160959E-2,3.683014959E-2,1.804817468E-2
1.257811958E0,-7.930471748E-2,5.785021558E-2,3.037594631E-2
1.267868958E0,-9.665197134E-2,7.231898606E-2,3.301075846E-2
1.277924958E0,-1.198987067E-1,7.551344484E-2,3.077157214E-2
1.287981958E0,-1.231628135E-1,7.192691416E-2,2.364558354E-2
1.298038958E0,-1.051976681E-1,8.468106389E-2,2.895831130E-3
1.308095958E0,-7.595799863E-2,1.200974807E-1,-2.455729060E-2
1.318151958E0,-3.446754441E-2,1.509046555E-1,-5.054388568E-2
1.328208958E0,-1.225436572E-3,1.529033631E-1,-7.788603008E-2
1.338265958E0,9.407234378E-3,1.452776641E-1,-1.034161523E-1
1.348321958E0,1.542157121E-2,1.372985244E-1,-1.066094488E-1
1.358378958E0,1.270621177E-2,1.285271347E-1,-8.594891429E-2
1.368435958E0,-2.256814623E-3,1.325038224E-1,-5.648091435E-2
1.378492958E0,-2.580554970E-2,1.617232263E-1,-3.664888814E-2
1.388548958E0,-4.008137807E-2,1.726832837E-1,-4.447550699E-2
1.398605958E0,-6.146416441E-2,1.967084557E-1,-8.356725425E-2
1.408662958E0,-7.387151569E-2,2.517527044E-1,-1.342880726E-1
1.418718958E0,-5.789787322E-2,3.090194464E-1,-1.755066216E-1
1.428775958E0,-2.585799061E-2,3.743710816E-1,-2.165858299E-1
1.438832958E0,1.235412201E-3,4.899903536E-1,-2.615216076E-1
1.448889958E0,1.903707534E-2,6.191492677E-1,-3.494141102E-1
1.458945958E0,2.985616587E-2,7.646998167E-1,-4.734833241E-1
1.469002958E0,4.964246601E-2,9.499146342E-1,-6.260820031E-1
1.479059958E0,7.155868411E-2,1.131668210E0,-8.062033057E-1
1.489115958E0,7.652351260E-2,1.277174830E0,-9.901313186E-1
1.499172958E0,5.396227911E-2,1.445772648E0,-1.152218580E0
1.509229958E0,3.810569644E-2,1.617606759E0,-1.278663874E0
1.519286958E0,4.122106358E-2,1.849871635E0,-1.389166713E0
1.529342958E0,7.640142739E-2,2.097946882E0,-1.510262966E0
1.539399958E0,1.425625980E-1,2.385538340E0,-1.629904151E0
1.549456958E0,2.286867201E-1,2.736123562E0,-1.752615571E0
1.559512958E0,3.264018595E-1,3.073884249E0,-1.874880672E0
1.569569958E0,3.954039812E-1,3.445872545E0,-1.941994190E0
1.579626958E0,4.316650629E-1,3.765367985E0,-1.970440269E0
1.589683958E0,3.996973932E-1,4.003896236E0,-2.001382113E0
1.599739958E0,3.891853690E-1,4.279711246E0,-2.095261812E0
1.609796958E0,4.095472097E-1,4.408762932E0,-2.227143049E0
1.619853958E0,4.255863726E-1,4.518983841E0,-2.344973326E0
1.629909958E0,4.571948647E-1,4.511482239E0,-2.425561905E0
1.639966958E0,4.639358521E-1,4.196636200E0,-2.476147413E0
1.650023958E0,4.430634081E-1,3.833606482E0,-2.412384272E0
1.660079958E0,4.091390073E-1,3.381185770E0,-2.215106249E0
1.670136958E0,3.443515897E-1,2.971327305E0,-1.844994903E0
1.680194750E0,2.817776799E-1,2.421639442E0,-1.337155342E0
1.690251750E0,2.139149010E-1,1.771906376E0,-7.752699256E-1
1.700307750E0,1.586511135E-1,1.270551443E0,-2.231567204E-1
1.710364750E0,8.536826074E-2,6.020810008E-1,1.779903322E-1
1.720421750E0,-1.675704308E-2,2.677723952E-2,3.916786611E-1
1.730477750E0,-1.421096921E-1,-3.610872626E-1,4.839535952E-1
1.740534750E0,-2.257619798E-1,-5.900480151E-1,4.886404872E-1
1.750591750E0,-2.204606831E-1,-4.982216358E-1,4.126511812E-1
1.760648750E0,-1.318016648E-1,-3.206156790E-1,2.097518593E-1
1.770704750E0,-3.919826448E-2,-1.633254886E-1,-4.142885283E-2
1.780761750E0,1.158235781E-2,-3.330837190E-2,-2.945857346E-1
1.790818750E0,5.411676690E-2,2.533670664E-1,-4.955545366E-1
1.800874750E0,1.539719850E-1,5.515114069E-1,-6.981952786E-1
1.810931750E0,2.538425028E-1,7.730142474E-1,-8.868005276E-1
1.820988750E0,3.270253837E-1,9.949042797E-1,-9.559990168E-1
1.831045750E0,3.939327300E-1,1.154242158E0,-9.221155047E-1
1.841101750E0,4.545210004E-1,1.278544426E0,-8.327091932E-1
1.851158750E0,4.938482344E-1,1.513350248E0,-6.932921410E-1
1.861215750E0,5.329971910E-1,1.732973933E0,-5.878874063E-1
1.871271750E0,5.405979753E-1,2.053259611E0,-5.269004107E-1
1.881328750E0,5.328154564E-1,2.471129179E0,-4.905338883E-1
1.891385750E0,5.418866277E-1,2.761230946E0,-4.936091304E-1
1.901442750E0,4.934940338E-1,3.001523495E0,-5.038495064E-1
1.911498750E0,3.832562268E-1,3.120836973E0,-5.185736418E-1
1.921555750E0,2.505727410E-1,3.290304184E0,-5.259029269E-1
1.931612750E0,1.649275124E-1,3.442934036E0,-5.589359999E-1
1.941668750E0,9.014355391E-2,3.514147997E0,-5.762691498E-1
1.951725750E0,1.861760207E-2,3.691080570E0,-5.179278255E-1
1.961782750E0,3.126229346E-2,3.656151772E0,-4.992066026E-1
1.971839750E0,2.812402323E-2,3.519827604E0,-5.186751485E-1
1.981895750E0,-1.881898567E-2,3.468580484E0,-4.819674492E-1
1.991952750E0,-1.982841641E-2,3.372290373E0,-3.369213045E-1
2.002009750E0,6.111304089E-2,3.285695791E0,-8.367893100E-2
2.012065750E0,1.858313531E-1,3.072134972E0,1.388923824E-1
2.022122750E0,2.601111829E-1,2.870208740E0,2.610776722E-1
2.032179750E0,2.793052793E-1,2.725558519E0,2.095465660E-1
2.042236750E0,2.295289338E-1,2.644780159E0,5.869072676E-2
2.052292750E0,1.592721790E-1,2.741781473E0,-7.491897792E-2
2.062349750E0,1.475279033E-1,2.774919748E0,-2.126097232E-1
2.072406750E0,1.364631504E-1,2.725541353E0,-3.312898874E-1
2.082462750E0,9.400465339E-2,2.667317152E0,-3.835541308E-1
2.092519750E0,4.115620255E-2,2.574231148E0,-3.739147484E-1
2.102576750E0,-3.942563664E-3,2.386894226E0,-2.878254056E-1
2.112632750E0,-3.086181916E-2,2.199865103E0,-1.375597864E-1
2.122689750E0,-4.755584523E-2,1.984217882E0,1.022753771E-2
2.132746750E0,-4.300821200E-2,1.762639523E0,1.068809181E-1
2.142803750E0,-3.922785446E-2,1.664280772E0,1.354853958E-1
2.152859750E0,-7.751658559E-3,1.598999739E0,9.119550884E-2
2.162916750E0,9.842514992E-3,1.551162243E0,-4.179370776E-2
2.172973750E0,-1.157489233E-2,1.606928110E0,-1.865231991E-1
2.183029750E0,-1.767432876E-2,1.551094055E0,-3.149307072E-1
2.193086750E0,-3.156208992E-2,1.417854309E0,-3.676029444E-1
2.203143750E0,-6.886498630E-2,1.302844644E0,-3.344503045E-1
2.213200750E0,-9.350391477E-2,1.185711980E0,-2.728950381E-1
2.223256750E0,-9.106472880E-2,1.099416494E0,-2.173819989E-1
2.233313750E0,-7.736095041E-2,9.851028919E-1,-1.958177239E-1
2.243370750E0,-5.489319190E-2,9.290915728E-1,-1.714306176E-1
2.253426750E0,-2.774398215E-2,9.708321095E-1,-1.121202633E-1
2.263483750E0,3.387490287E-2,9.060802460E-1,-8.499942720E-2
2.273540750E0,7.120671123E-2,8.839624524E-1,-7.248319685E-2
2.283597750E0,8.605010808E-2,8.356183171E-1,-1.046967953E-1
2.293653750E0,7.808760554E-2,7.822286487E-1,-1.723101735E-1
2.303710750E0,7.130293548E-2,7.270176411E-1,-2.328083962E-1
2.313767750E0,4.618773982E-2,6.750267148E-1,-2.463905215E-1
2.323823750E0,-8.964462206E-3,6.030755639E-1,-2.144688070E-1
2.333880750E0,-8.519022912E-2,5.234204531E-1,-1.458350718E-1
2.343937750E0,-1.562465578E-1,3.956227899E-1,-7.294543087E-2
2.353994750E0,-2.194731086E-1,2.324631214E-1,-4.898709245E-3
2.364050750E0,-2.539650500E-1,1.260019243E-1,8.126786351E-2
2.374107750E0,-2.275631577E-1,5.054563284E-2,1.472522467E-1
2.384164750E0,-1.854412705E-1,6.977898628E-2,1.709317416E-1
2.394221750E0,-1.456662416E-1,1.354122460E-1,1.538065821E-1
2.404277750E0,-1.229904890E-1,1.719114035E-1,1.029996052E-1
2.414334750E0,-1.332457215E-1,2.574524283E-1,5.484560877E-2
2.424391750E0,-1.357874423E-1,3.080173433E-1,2.045327798E-2
2.434447750E0,-1.300481409E-1,3.013022840E-1,-1.760297827E-2
2.444504750E0,-1.260664463E-1,2.960364223E-1,-4.133627191E-2
2.454561750E0,-1.207725629E-1,2.061333209E-1,-5.368840322E-2
2.464618750E0,-1.031416357E-1,1.227888912E-1,-1.450344734E-2
2.474674750E0,-6.656403840E-2,1.742534637E-1,9.923021495E-2
2.484731750E0,-1.740980707E-2,1.259064376E-1,1.846827865E-1
2.494788750E0,-5.150500219E-3,5.822675303E-2,2.055011839E-1
2.504844750E0,-4.937628284E-2,7.063042372E-2,2.166960537E-1
2.514901750E0,-7.644271851E-2,3.583282977E-2,1.822978109E-1
2.524958750E0,-5.531985685E-2,8.765660971E-2,1.379734874E-1
2.535014750E0,1.011120062E-2,1.746263355E-1,1.156222075E-1
2.545071750E0,8.882359415E-2,2.235808372E-1,7.601860911E-2
2.555128750E0,1.444321126E-1,2.981488407E-1,4.433587566E-2
2.565185750E0,1.774827391E-1,3.170892298E-1,2.596538886E-2
2.575241750E0,1.695325822E-1,2.957072854E-1,3.249304369E-2
2.585298750E0,1.329569817E-1,2.486281693E-1,7.591561973E-2
2.595355750E0,5.711512268E-2,1.846266538E-1,1.449055821E-1
2.605412750E0,-3.840793669E-2,1.376016289E-1,2.221577615E-1
2.615468750E0,-2.331870496E-1,-1.529260911E-2,3.078101873E-1
2.625525750E0,4.079492688E-1,-2.651937008E0,1.420438737E-1
2.635582750E0,5.759829283E-1,1.857071638E0,7.781851292E-2
2.645638750E0,-4.826105535E-1,6.598326564E-1,-2.157382667E-1
2.655695750E0,-3.321989477E-1,1.938228905E-1,-4.455266893E-2
2.665752750E0,-3.227319419E-1,1.120089814E-1,6.314449757E-2
2.675809750E0,-3.820621371E-1,1.491868794E-1,2.786687315E-1
2.685865333E0,-3.353343308E-1,1.675312668E-1,4.590656757E-1
2.695922333E0,-3.044674098E-1,1.759758443E-1,4.759482741E-1
2.705979333E0,-2.802214622E-1,1.521967500E-1,4.200985730E-1
2.716035333E0,-2.753899992E-1,1.364530176E-1,3.316726089E-1
2.726092333E0,-2.774296999E-1,1.508303583E-1,2.853884697E-1
2.736149333E0,-2.977684140E-1,1.428935975E-1,3.562014997E-1
2.746205333E0,-3.793447614E-1,6.056091562E-2,4.634653926E-1
2.756262333E0,-4.757910073E-1,1.006444450E-2,5.627465844E-1
2.766319333E0,-6.375972629E-1,4.876339436E-1,7.412872910E-1
2.776376333E0,-7.227634192E-1,7.550671697E-1,1.078850746E0
2.786432333E0,-8.219113350E-1,1.232007861E0,1.407314301E0
2.796489333E0,-9.400379062E-1,1.800170898E0,1.600309491E0
2.806546333E0,-9.591375589E-1,2.216308832E0,1.679674983E0
2.816603333E0,-8.703534007E-1,2.505093336E0,1.635407448E0
2.826659333E0,-7.903560400E-1,2.612187147E0,1.485644579E0
2.836716333E0,-7.728055716E-1,2.529145002E0,1.331201196E0
2.846773333E0,-8.423588276E-1,2.281134129E0,1.258773088E0
2.856829333E0,-1.046015978E0,1.430973887E0,1.239722610E0
2.866886333E0,-1.493297815E0,8.752523661E-1,9.660546184E-1
2.876943333E0,-1.953972101E0,5.110938549E-1,5.796314478E-1
2.887000333E0,-2.215350389E0,1.741403490E-1,4.179399908E-1
2.897056333E0,-2.210818529E0,2.319431864E-2,5.295733809E-1
2.907113333E0,-1.938475251E0,1.622136310E-2,7.046104670E-1
2.917170333E0,-1.471743345E0,5.720873177E-2,7.228618264E-1
2.927226333E0,-1.158296824E0,-1.001681015E-1,5.402771235E-1
2.937283333E0,-1.096721172E0,-2.541389167E-1,2.549223602E-1
2.947340333E0,-1.152374387E0,-3.489865959E-1,-3.598404676E-2
2.957397333E0,-1.236842275E0,-3.600993454E-1,-2.593302429E-1
2.967453333E0,-1.290400863E0,-3.102566898E-1,-3.987097144E-1
2.977510333E0,-1.485215783E0,-1.703784466E-1,-4.672496915E-1
2.987567333E0,-2.103523731E0,1.987298392E-2,-3.238342106E-1
2.997623333E0,-2.822870255E0,1.377068907E-1,-2.310197055E-2
3.007680333E0,-3.368606329E0,2.139795572E-1,3.156569302E-1
3.017737333E0,-3.761191130E0,3.769430816E-1,5.319575667E-1
3.027794333E0,-4.101171494E0,6.232357025E-1,5.744765401E-1
3.037850333E0,-4.266477585E0,7.003728747E-1,4.908497930E-1
3.047907333E0,-4.154015064E0,7.148042917E-1,3.599216044E-1
3.057964333E0,-3.798442125E0,7.528661489E-1,2.292191237E-1
3.068020333E0,-3.238763332E0,7.731607556E-1,1.307343692E-1
3.078077333E0,-2.582937002E0,8.278162479E-1,7.292835414E-2
3.088134333E0,-1.993742228E0,8.783449531E-1,3.413967416E-2
3.098191333E0,-1.589687109E0,9.259345531E-1,2.631016076E-3
3.108247333E0,-1.334548831E0,9.525070190E-1,5.606467649E-2
3.118304333E0,-1.118887782E0,1.034205556E0,1.739247143E-1
3.128361333E0,-9.171272516E-1,1.208030581E0,2.833891511E-1
3.138417333E0,-6.673719883E-1,1.350841761E0,3.128057122E-1
3.148474333E0,-3.984433115E-1,1.427571774E0,2.286354303E-1
3.158531333E0,-1.772689223E-1,1.460886240E0,4.843402281E-2
3.168588333E0,-7.149129175E-3,1.465721726E0,-1.504788101E-1
3.178644333E0,7.717969269E-2,1.343410254E0,-2.637161314E-1
3.188701333E0,6.442927569E-2,1.235058188E0,-2.474250346E-1
3.198758333E0,-2.624007314E-2,1.162357569E0,-1.524865180E-1
3.208814333E0,-1.630722284E-1,1.052233696E0,-1.825041883E-2
3.218871333E0,-3.111884594E-1,9.654229283E-1,1.401757151E-1
3.228928333E0,-4.397461712E-1,9.099791646E-1,2.911646962E-1
3.238985333E0,-5.239036679E-1,8.621517420E-1,3.785980642E-1
3.249041333E0,-6.078134775E-1,8.768012524E-1,3.691659570E-1
3.259098333E0,-6.737422943E-1,8.562881947E-1,3.149238527E-1
3.269155333E0,-6.786073446E-1,8.387033343E-1,2.847931087E-1
3.279212333E0,-6.623198986E-1,7.603525519E-1,2.897868752E-1
3.289268333E0,-6.264673471E-1,6.365746856E-1,3.298589289E-1
3.299325333E0,-5.909276009E-1,5.281063914E-1,3.777284920E-1
3.309382333E0,-5.466264486E-1,4.354478419E-1,4.352674186E-1
3.319438333E0,-5.070363283E-1,4.374054670E-1,4.846776724E-1
3.329495333E0,-4.733409882E-1,4.607622027E-1,5.089710355E-1
