"Time (s)","X (µT)","Y (µT)","Z (µT)"
1.279079166E-2,3.982888412E1,-5.283358765E1,-3.076606750E1
2.284279167E-2,3.994442368E1,-5.303852081E1,-3.087846375E1
3.289479166E-2,3.996435165E1,-5.289177704E1,-3.085359192E1
4.294579167E-2,4.006645966E1,-5.254804993E1,-3.111869812E1
5.299779167E-2,4.048524475E1,-5.225769806E1,-3.118298340E1
6.304979166E-2,4.101307297E1,-5.178732300E1,-3.127738953E1
7.310179167E-2,4.173777390E1,-5.107040405E1,-3.139222717E1
8.315379166E-2,4.244589615E1,-5.046263885E1,-3.147123718E1
9.320579167E-2,4.331824112E1,-4.956716156E1,-3.135203552E1
1.032584583E-1,4.409886169E1,-4.881563568E1,-3.095556641E1
1.133104583E-1,4.516419220E1,-4.787303543E1,-3.064001465E1
1.233624583E-1,4.602883911E1,-4.717171478E1,-2.949992371E1
1.334144583E-1,4.728388214E1,-4.635826111E1,-2.878797913E1
1.434664583E-1,4.785867691E1,-4.552690887E1,-2.787165833E1
1.535184583E-1,4.903606033E1,-4.492294312E1,-2.687266541E1
1.635704583E-1,4.962987518E1,-4.431333923E1,-2.591484070E1
1.736224583E-1,5.029013062E1,-4.350782013E1,-2.523556519E1
1.836744583E-1,5.084347153E1,-4.288847351E1,-2.405189514E1
1.937264583E-1,5.141126633E1,-4.209205627E1,-2.314164734E1
2.037784583E-1,5.170141220E1,-4.197708893E1,-2.251777649E1
2.138294583E-1,5.206233978E1,-4.148162842E1,-2.188258362E1
2.238814583E-1,5.238365555E1,-4.124216461E1,-2.154121399E1
2.339334583E-1,5.227443695E1,-4.121931458E1,-2.138304138E1
2.439854583E-1,5.239537811E1,-4.150543213E1,-2.128628540E1
2.540374583E-1,5.235972977E1,-4.171785736E1,-2.138238525E1
2.640894583E-1,5.228540802E1,-4.159941483E1,-2.191203308E1
2.741414583E-1,5.206342316E1,-4.201582336E1,-2.173934937E1
2.841934583E-1,5.191290665E1,-4.203450012E1,-2.159089661E1
2.942454583E-1,5.212918091E1,-4.182748032E1,-2.120124817E1
3.042974583E-1,5.258453751E1,-4.130468750E1,-2.115086365E1
3.143494583E-1,5.280722809E1,-4.083721161E1,-1.980165100E1
3.244014583E-1,5.303187180E1,-4.107181549E1,-1.944621277E1
3.344534583E-1,5.307123566E1,-4.069936752E1,-1.875297546E1
3.445054583E-1,5.328013611E1,-4.064191055E1,-1.788012695E1
3.545574583E-1,5.342057800E1,-4.028864670E1,-1.711038208E1
3.646094583E-1,5.384394073E1,-3.996677017E1,-1.691407776E1
3.746614583E-1,5.431784058E1,-3.925617981E1,-1.652665710E1
3.847124583E-1,5.487849426E1,-3.873736572E1,-1.601994324E1
3.947644583E-1,5.542646408E1,-3.814197540E1,-1.600964355E1
4.048164583E-1,5.588378906E1,-3.716876984E1,-1.609396362E1
4.148684583E-1,5.602341461E1,-3.651078033E1,-1.645300293E1
4.249204583E-1,5.639345551E1,-3.545875931E1,-1.671302795E1
4.349724583E-1,5.664024734E1,-3.446199799E1,-1.689427185E1
4.450244583E-1,5.707389069E1,-3.355180740E1,-1.679600525E1
4.550764583E-1,5.753978729E1,-3.258890533E1,-1.737602234E1
4.651284583E-1,5.823842621E1,-3.154529953E1,-1.748400879E1
4.751804583E-1,5.851184082E1,-3.093056870E1,-1.801493835E1
4.852324583E-1,5.881338120E1,-2.992941284E1,-1.807131958E1
4.952844583E-1,5.915723419E1,-2.903837585E1,-1.824211121E1
5.053364583E-1,5.934018707E1,-2.826716232E1,-1.846240234E1
5.153884583E-1,5.936171722E1,-2.749667168E1,-1.911389160E1
5.254404583E-1,5.964104843E1,-2.689687347E1,-1.943481445E1
5.354924583E-1,5.988065338E1,-2.596439362E1,-2.079367065E1
5.455444583E-1,5.992294312E1,-2.530113411E1,-2.167369080E1
5.555954583E-1,6.014988708E1,-2.437758636E1,-2.259306335E1
5.656474583E-1,6.015346527E1,-2.341545868E1,-2.344677734E1
5.756994583E-1,6.027391434E1,-2.260669899E1,-2.495230103E1
5.857514583E-1,6.039477158E1,-2.155299377E1,-2.622653198E1
5.958034583E-1,6.043833923E1,-2.025276947E1,-2.742712402E1
6.058554583E-1,6.037609100E1,-1.907737541E1,-2.846681213E1
6.159074583E-1,5.999573517E1,-1.760423279E1,-2.960691833E1
6.259594583E-1,5.971192169E1,-1.604573631E1,-3.069427490E1
6.360114583E-1,5.947138214E1,-1.445735836E1,-3.140119934E1
6.460634583E-1,5.896791840E1,-1.279158592E1,-3.233091736E1
6.561154583E-1,5.821226120E1,-1.067225456E1,-3.317158508E1
6.661674583E-1,5.783463287E1,-8.706090927E0,-3.374914551E1
6.762194583E-1,5.731434631E1,-6.586442947E0,-3.467387390E1
6.862714583E-1,5.652980042E1,-4.624697685E0,-3.534869385E1
6.963234583E-1,5.550852203E1,-2.552547455E0,-3.566627502E1
7.063754583E-1,5.459935379E1,-4.723243713E-1,-3.616926575E1
7.164274583E-1,5.377311707E1,1.362676620E0,-3.662634277E1
7.264784583E-1,5.242697525E1,3.459066391E0,-3.712196350E1
7.365304583E-1,5.143364716E1,5.688106537E0,-3.732656860E1
7.465824583E-1,5.008118057E1,7.505489349E0,-3.737158203E1
7.566344583E-1,4.861429596E1,9.731262207E0,-3.737010193E1
7.666864583E-1,4.673647308E1,1.172837448E1,-3.746481323E1
7.767384583E-1,4.512851715E1,1.366147804E1,-3.681265259E1
7.867904583E-1,4.330354309E1,1.561897850E1,-3.677561951E1
7.968424583E-1,4.098456955E1,1.733439827E1,-3.672177124E1
8.068944583E-1,3.882266617E1,1.929765892E1,-3.591265869E1
8.169464583E-1,3.648513412E1,2.096258354E1,-3.496903992E1
8.269984583E-1,3.443167114E1,2.233511543E1,-3.445162964E1
8.370504583E-1,3.173430634E1,2.338765526E1,-3.401077271E1
8.471024583E-1,2.959571266E1,2.442268181E1,-3.290882874E1
8.571544583E-1,2.742851830E1,2.542698479E1,-3.219668579E1
8.672064583E-1,2.495633316E1,2.614995003E1,-3.134725952E1
8.772584583E-1,2.267440605E1,2.682674980E1,-3.051844788E1
8.873104583E-1,2.074941254E1,2.702567101E1,-3.019424438E1
8.973624583E-1,1.887298965E1,2.702377892E1,-3.012934875E1
9.074134583E-1,1.684329796E1,2.743186760E1,-2.924937439E1
9.174654583E-1,1.522561836E1,2.736736488E1,-2.867651367E1
9.275174583E-1,1.321615410E1,2.747007561E1,-2.844447327E1
9.375694583E-1,1.149870682E1,2.743702126E1,-2.814501953E1
9.476214583E-1,1.015326118E1,2.740571785E1,-2.797125244E1
9.576734583E-1,8.804225922E0,2.715092659E1,-2.788102722E1
9.677254583E-1,7.659683228E0,2.710649681E1,-2.798870850E1
9.777774583E-1,6.710479736E0,2.716410637E1,-2.724826050E1
9.878294583E-1,5.931652069E0,2.678059578E1,-2.767213440E1
9.978814583E-1,5.674636841E0,2.667719841E1,-2.794578552E1
1.007933458E0,5.073970795E0,2.616015053E1,-2.791316223E1
1.017985458E0,4.931900024E0,2.603587532E1,-2.795141602E1
1.028037458E0,4.336986542E0,2.606534767E1,-2.808732605E1
1.038089458E0,4.149394989E0,2.630389595E1,-2.822645569E1
1.048141458E0,3.746288300E0,2.619671822E1,-2.866624451E1
1.058193458E0,3.811325073E0,2.615353203E1,-2.886758423E1
1.068245458E0,3.281929016E0,2.586518669E1,-2.934388733E1
1.078297458E0,3.256313324E0,2.586950874E1,-3.019650269E1
1.088348458E0,3.125308990E0,2.579831123E1,-3.059431458E1
1.098400458E0,3.457378387E0,2.580727196E1,-3.130061340E1
1.108452167E0,3.415668488E0,2.574645424E1,-3.186317444E1
1.118504167E0,3.738067627E0,2.558928871E1,-3.251481628E1
1.128556167E0,3.822643280E0,2.530644798E1,-3.300285339E1
1.138608167E0,3.682537079E0,2.530402946E1,-3.317337036E1
1.148660167E0,4.104877472E0,2.566768456E1,-3.373965454E1
1.158712167E0,4.482162476E0,2.584086037E1,-3.394352722E1
1.168764167E0,4.983245850E0,2.623524666E1,-3.409910583E1
1.178816167E0,5.683055878E0,2.637348366E1,-3.494227600E1
1.188868167E0,6.141101837E0,2.658064842E1,-3.502107239E1
1.198920167E0,6.838071823E0,2.684263802E1,-3.508583069E1
1.208972167E0,7.314443588E0,2.772663307E1,-3.467805481E1
1.219024167E0,8.072803497E0,2.828841591E1,-3.470619202E1
1.229076167E0,9.267257690E0,2.900645256E1,-3.511891174E1
1.239128167E0,1.039562988E1,2.902707100E1,-3.544184875E1
1.249180167E0,1.169278526E1,2.969351006E1,-3.526330566E1
1.259232167E0,1.284947968E1,3.016736412E1,-3.486444092E1
1.269284167E0,1.398988724E1,3.059202385E1,-3.507322693E1
1.279335167E0,1.557099724E1,3.092027855E1,-3.514732361E1
1.289387167E0,1.716477394E1,3.122694588E1,-3.511181641E1
1.299439167E0,1.868643188E1,3.136527061E1,-3.498806763E1
1.309491167E0,2.019965935E1,3.177462578E1,-3.521224976E1
1.319543167E0,2.168974495E1,3.178045464E1,-3.581784058E1
1.329595167E0,2.306059265E1,3.191660881E1,-3.596556091E1
1.339647167E0,2.425661087E1,3.201371002E1,-3.667559814E1
1.349699167E0,2.569890213E1,3.169589424E1,-3.692517090E1
1.359751167E0,2.701094437E1,3.178038216E1,-3.713633728E1
1.369803167E0,2.804391861E1,3.147653389E1,-3.767868042E1
1.379855167E0,2.953905487E1,3.131171989E1,-3.783901978E1
1.389907167E0,3.102843475E1,3.114817619E1,-3.848071289E1
1.399959167E0,3.246135712E1,3.074994850E1,-3.891085815E1
1.410011167E0,3.393598175E1,3.024968147E1,-3.910246277E1
1.420063167E0,3.575065994E1,2.949254417E1,-3.956890869E1
1.430115167E0,3.740154648E1,2.849864769E1,-4.014553833E1
1.440167167E0,3.905670547E1,2.774670601E1,-4.081295776E1
1.450219167E0,4.074505615E1,2.703895378E1,-4.117366028E1
1.460271167E0,4.276774216E1,2.609307289E1,-4.152714539E1
1.470323167E0,4.459084320E1,2.477559090E1,-4.154315186E1
1.480374167E0,4.627555466E1,2.344639015E1,-4.150657654E1
1.490426167E0,4.822639465E1,2.228231239E1,-4.151133728E1
1.500478167E0,4.964264297E1,2.129453850E1,-4.174012756E1
1.510530167E0,5.108506775E1,1.986526299E1,-4.143414307E1
1.520582167E0,5.244408417E1,1.874501991E1,-4.166941833E1
1.530634167E0,5.369965363E1,1.759971809E1,-4.184283447E1
1.540686167E0,5.497057343E1,1.628092003E1,-4.175610352E1
1.550738167E0,5.628102875E1,1.499608040E1,-4.205955505E1
1.560790167E0,5.747325516E1,1.366120338E1,-4.237620544E1
1.570842167E0,5.844322205E1,1.275679588E1,-4.278900146E1
1.580894167E0,5.930281830E1,1.163676643E1,-4.255523682E1
1.590946167E0,6.036309052E1,1.084110832E1,-4.255158997E1
1.600998167E0,6.103904724E1,9.756910324E0,-4.306056213E1
1.611050167E0,6.176398468E1,8.835065842E0,-4.319252014E1
1.621102167E0,6.239441681E1,7.995843887E0,-4.327424622E1
1.631154167E0,6.312017822E1,7.138526917E0,-4.311204529E1
1.641206167E0,6.395499802E1,6.559415817E0,-4.308021545E1
1.651258167E0,6.436244965E1,5.675613403E0,-4.318601990E1
1.661310167E0,6.475929260E1,5.297733307E0,-4.320155334E1
1.671362167E0,6.528946686E1,4.672307968E0,-4.348539734E1
1.681413167E0,6.561621857E1,4.421113968E0,-4.329046631E1
1.691465167E0,6.625762939E1,4.315401077E0,-4.366592407E1
1.701517167E0,6.643078613E1,4.009105682E0,-4.379090881E1
1.711569167E0,6.673304749E1,3.982046127E0,-4.394020081E1
1.721621167E0,6.688824463E1,4.278923035E0,-4.392105103E1
1.731673167E0,6.658571625E1,4.526599884E0,-4.414717102E1
1.741725167E0,6.662580872E1,4.885349274E0,-4.462240601E1
1.751777167E0,6.671501160E1,5.206003189E0,-4.485823059E1
1.761829167E0,6.642419434E1,5.591810226E0,-4.536727905E1
1.771881167E0,6.605416870E1,6.160434723E0,-4.609880066E1
1.781933167E0,6.547312927E1,7.300922394E0,-4.633918762E1
1.791985167E0,6.489608765E1,8.004913330E0,-4.651690674E1
1.802037167E0,6.424494934E1,9.430103302E0,-4.677127075E1
1.812089167E0,6.349616241E1,1.071949577E1,-4.754699707E1
1.822141167E0,6.258738708E1,1.202326965E1,-4.811933899E1
1.832193167E0,6.162994385E1,1.314012718E1,-4.824108887E1
1.842245167E0,6.040103912E1,1.421451759E1,-4.833369446E1
1.852297167E0,5.918078613E1,1.523412895E1,-4.841880798E1
1.862349167E0,5.797168350E1,1.637310219E1,-4.899093628E1
1.872401167E0,5.653142166E1,1.747269630E1,-4.982704163E1
1.882452167E0,5.494482040E1,1.863718605E1,-5.069146729E1
1.892504167E0,5.346504974E1,1.960124397E1,-5.069674683E1
1.902556167E0,5.194309998E1,2.058586311E1,-5.088525391E1
1.912608167E0,5.016862488E1,2.165693855E1,-5.115542603E1
1.922660167E0,4.880256271E1,2.238800240E1,-5.096330261E1
1.932712167E0,4.746910858E1,2.318951607E1,-5.077554321E1
1.942764167E0,4.620914459E1,2.430908012E1,-5.090701294E1
1.952816167E0,4.497973251E1,2.488214684E1,-5.066433716E1
1.962868167E0,4.395137024E1,2.578022194E1,-4.995608521E1
1.972920167E0,4.280432510E1,2.658881569E1,-4.952322388E1
1.982972167E0,4.179783249E1,2.754612923E1,-4.908189392E1
1.993024167E0,4.098017120E1,2.821366310E1,-4.872926331E1
2.003076167E0,3.951820755E1,2.889061165E1,-4.782464600E1
2.013128167E0,3.827110291E1,2.974334526E1,-4.741802979E1
2.023180167E0,3.729362869E1,3.052864265E1,-4.671784973E1
2.033232167E0,3.630841064E1,3.105925560E1,-4.606451416E1
2.043284167E0,3.541472626E1,3.164693260E1,-4.536041260E1
2.053336167E0,3.390634537E1,3.229045868E1,-4.502421570E1
2.063388167E0,3.287802124E1,3.271418762E1,-4.430320740E1
2.073440167E0,3.191970444E1,3.289187622E1,-4.353173828E1
2.083492167E0,3.133480453E1,3.330710602E1,-4.345965576E1
2.093543167E0,3.025430679E1,3.373480225E1,-4.287829590E1
2.103595167E0,2.964424896E1,3.373346710E1,-4.231285095E1
2.113646792E0,2.903616524E1,3.415880585E1,-4.200506592E1
2.123698792E0,2.829761887E1,3.440464020E1,-4.174942017E1
2.133750792E0,2.743294144E1,3.470633698E1,-4.140161133E1
2.143802792E0,2.708396149E1,3.475135803E1,-4.133462524E1
2.153854792E0,2.663380051E1,3.450756836E1,-4.134156799E1
2.163906792E0,2.660437012E1,3.466852570E1,-4.114340210E1
2.173958792E0,2.647124672E1,3.469917297E1,-4.164169312E1
2.184010792E0,2.625960922E1,3.443363190E1,-4.200183105E1
2.194062792E0,2.637060165E1,3.415631104E1,-4.283773804E1
2.204114792E0,2.660262108E1,3.368235016E1,-4.369862366E1
2.214166792E0,2.693601036E1,3.356345367E1,-4.460127258E1
2.224218792E0,2.730928802E1,3.281616211E1,-4.573803711E1
2.234270792E0,2.768892670E1,3.211096191E1,-4.718041992E1
2.244322792E0,2.829144859E1,3.128421593E1,-4.839285278E1
2.254374792E0,2.948210335E1,3.023964882E1,-4.972531128E1
2.264426792E0,3.070316315E1,2.896313667E1,-5.149119568E1
2.274478792E0,3.231598282E1,2.765428352E1,-5.261668396E1
2.284530792E0,3.409476089E1,2.617187691E1,-5.398786926E1
2.294582792E0,3.628432846E1,2.457176399E1,-5.508444214E1
2.304634792E0,3.815119171E1,2.275542641E1,-5.620330811E1
2.314686792E0,4.030093384E1,2.094370079E1,-5.750990295E1
2.324737792E0,4.289466858E1,1.896792412E1,-5.845797729E1
2.334789792E0,4.530913162E1,1.662084389E1,-5.902372742E1
2.344841792E0,4.817895126E1,1.422914314E1,-5.989736938E1
2.354893792E0,5.082174683E1,1.154092407E1,-6.042675781E1
2.364945792E0,5.376897430E1,8.701410294E0,-6.035328674E1
2.374997792E0,5.734659576E1,5.348402023E0,-5.988108826E1
2.385049792E0,6.070330048E1,1.514640808E0,-5.875694275E1
2.395101792E0,6.443385315E1,-2.567531586E0,-5.703036499E1
2.405153792E0,6.773960876E1,-6.764134407E0,-5.449812317E1
2.415205792E0,7.116794586E1,-1.101014709E1,-5.153372192E1
2.425257792E0,7.378034973E1,-1.576936817E1,-4.818634033E1
2.435309792E0,7.631903839E1,-1.998316765E1,-4.443710327E1
2.445361792E0,7.861277771E1,-2.418234634E1,-3.998252869E1
2.455413792E0,7.974392700E1,-2.790059280E1,-3.497630310E1
2.465465792E0,8.057556152E1,-3.139322853E1,-2.980891418E1
2.475517792E0,8.123146057E1,-3.436512375E1,-2.470806885E1
2.485569792E0,8.120719147E1,-3.687722778E1,-1.920977783E1
2.495621792E0,8.115612793E1,-3.920593643E1,-1.381738281E1
2.505673792E0,8.024201965E1,-4.102486420E1,-8.319671631E0
2.515725792E0,7.930741119E1,-4.260218048E1,-3.421722412E0
2.525777792E0,7.830462646E1,-4.415586090E1,1.431686401E0
2.535829792E0,7.635259247E1,-4.478925705E1,5.996414185E0
2.545880792E0,7.425473022E1,-4.564547729E1,1.002670288E1
2.555932792E0,7.226629639E1,-4.674857330E1,1.330223083E1
2.565984792E0,6.985903168E1,-4.743346024E1,1.664379883E1
2.576036792E0,6.739624023E1,-4.809698486E1,1.968243408E1
2.586088792E0,6.545144653E1,-4.882140350E1,2.168350220E1
2.596140792E0,6.309104538E1,-4.895564270E1,2.347019958E1
2.606192792E0,6.086569214E1,-4.965253448E1,2.483593750E1
2.616244792E0,5.878498077E1,-4.982168579E1,2.568653870E1
2.626296792E0,5.657072830E1,-4.966928864E1,2.732882690E1
2.636348792E0,5.440697479E1,-4.926616669E1,2.828221130E1
2.646400792E0,5.256812286E1,-4.887170410E1,2.906802368E1
2.656452792E0,5.067722321E1,-4.829341125E1,2.983938599E1
2.666504792E0,4.883018494E1,-4.760562897E1,3.057101440E1
2.676556792E0,4.683908463E1,-4.675064087E1,3.159263611E1
2.686608792E0,4.535455704E1,-4.572504044E1,3.170257568E1
2.696660792E0,4.418236160E1,-4.448658752E1,3.232640076E1
2.706712792E0,4.310943222E1,-4.333896637E1,3.278182983E1
2.716764792E0,4.192112732E1,-4.219504547E1,3.297302246E1
2.726816792E0,4.059001923E1,-4.088105011E1,3.296464539E1
2.736868792E0,3.936470032E1,-3.941883850E1,3.310293579E1
2.746920792E0,3.814460754E1,-3.825656128E1,3.336941528E1
2.756972792E0,3.679219055E1,-3.681175232E1,3.378370667E1
2.767024792E0,3.554887772E1,-3.534216690E1,3.434896851E1
2.777076792E0,3.429404449E1,-3.392502975E1,3.508000183E1
2.787127792E0,3.277787018E1,-3.235798645E1,3.543536377E1
2.797179792E0,3.116485977E1,-3.051738739E1,3.592753601E1
2.807231792E0,2.941768456E1,-2.836790466E1,3.675604248E1
2.817283792E0,2.765151405E1,-2.623435402E1,3.759548950E1
2.827335792E0,2.593712616E1,-2.350408363E1,3.874000549E1
2.837387792E0,2.412479019E1,-2.062901306E1,4.039019775E1
2.847439792E0,2.220576477E1,-1.702250290E1,4.226167297E1
2.857491792E0,2.028161049E1,-1.315262413E1,4.421517944E1
2.867543792E0,1.794124603E1,-8.542819977E0,4.649034119E1
2.877595792E0,1.576644516E1,-3.676873207E0,4.891948700E1
2.887647792E0,1.377048874E1,1.564313889E0,5.110678101E1
2.897699792E0,1.179827499E1,6.997365952E0,5.380860901E1
2.907751792E0,9.858362198E0,1.236893463E1,5.562446594E1
2.917803792E0,7.875255585E0,1.824824715E1,5.685384369E1
2.927855792E0,5.861438751E0,2.398365974E1,5.788549805E1
2.937907792E0,3.442504883E0,3.028185844E1,5.840116119E1
2.947959792E0,1.178905487E0,3.658757782E1,5.786796570E1
2.958011792E0,-1.336597443E0,4.300046539E1,5.696476746E1
2.968063792E0,-4.116386414E0,4.883298492E1,5.604233551E1
2.978115792E0,-6.818374634E0,5.410034180E1,5.505194092E1
2.988167792E0,-9.495437622E0,5.869602966E1,5.440031433E1
2.998219792E0,-1.132942581E1,6.234903717E1,5.433874512E1
3.008271792E0,-1.289191818E1,6.482263947E1,5.463264465E1
3.018323792E0,-1.425168610E1,6.627584839E1,5.547114563E1
3.028374792E0,-1.532771683E1,6.755574799E1,5.609629059E1
3.038426792E0,-1.694892883E1,6.858616638E1,5.568351746E1
3.048478792E0,-1.877775192E1,6.964402771E1,5.471311951E1
3.058530792E0,-2.032244492E1,7.118460083E1,5.284278107E1
3.068582792E0,-2.201491928E1,7.359397888E1,5.084941864E1
3.078634792E0,-2.338486099E1,7.654537201E1,4.878414154E1
3.088686792E0,-2.497420883E1,8.137524414E1,4.602709198E1
3.098738792E0,-2.616046524E1,8.749113464E1,4.206146240E1
3.108791292E0,-2.732812881E1,9.459191132E1,3.692779541E1
3.118843292E0,-2.846406937E1,1.024254303E2,3.026866150E1
3.128895292E0,-2.954053116E1,1.102091827E2,2.184887695E1
3.138947292E0,-3.001912308E1,1.171532440E2,1.133139038E1
3.148999292E0,-3.000706863E1,1.222700348E2,-1.518997192E0
3.159051292E0,-2.900894547E1,1.244732361E2,-1.586805725E1
3.169103292E0,-2.682551956E1,1.232625580E2,-3.136167908E1
3.179155292E0,-2.332435608E1,1.172173462E2,-4.706355286E1
3.189207292E0,-1.830189896E1,1.046059723E2,-6.370770264E1
3.199259292E0,-1.224607849E1,7.692229462E1,-8.403871155E1
3.209311292E0,-5.675090790E0,5.921885681E1,-9.395964050E1
3.219363292E0,-4.119731903E0,5.427033997E1,-9.638188171E1
3.229415292E0,-3.371543884E0,5.308460999E1,-9.720692444E1
3.239467292E0,-3.277488708E0,5.271087646E1,-9.729570007E1
3.249519292E0,-3.342140198E0,5.259662628E1,-9.788999939E1
3.259571292E0,-3.281326294E0,5.255149078E1,-9.788719177E1
3.269623292E0,-3.239913940E0,5.250259399E1,-9.772740173E1
3.279674292E0,-3.245536804E0,5.232421875E1,-9.771226501E1
3.289726292E0,-3.052036285E0,5.236126709E1,-9.760618591E1
3.299778292E0,-2.660633087E0,5.255039978E1,-9.780812073E1
3.309830292E0,-2.740287781E0,5.239400482E1,-9.749320984E1
3.319882292E0,-3.043804169E0,5.214979553E1,-9.763813782E1
3.329934292E0,-2.709289551E0,5.196551514E1,-9.805128479E1
3.339986292E0,-2.570800781E0,5.185911560E1,-9.837403870E1
3.350038292E0,-2.290904999E0,5.184265137E1,-9.849104309E1
3.360090292E0,-2.344768524E0,5.165242004E1,-9.841075134E1
3.370142292E0,-1.966438293E0,5.167239380E1,-9.867237854E1
3.380194292E0,-1.659641266E0,5.135810089E1,-9.901591492E1
3.390246292E0,-1.519317627E0,5.118749237E1,-9.960160828E1
3.400298292E0,-1.353679657E0,5.145835876E1,-9.996055603E1
3.410350292E0,-7.122077942E-1,5.154955292E1,-9.995869446E1
3.420402292E0,-8.639526367E-2,5.172539520E1,-1.000777435E2
3.430454292E0,7.388610840E-1,5.212081146E1,-1.000009308E2
3.440506292E0,1.268066406E0,5.257755280E1,-1.002504425E2
3.450558292E0,1.893821716E0,5.283992767E1,-1.002157440E2
3.460610292E0,2.768390656E0,5.323665619E1,-1.002529144E2
3.470662292E0,3.433059692E0,5.358521271E1,-1.008292084E2
3.480714292E0,3.831020355E0,5.393083191E1,-1.013210297E2
