"Time (s)","X (m/s^2)","Y (m/s^2)","Z (m/s^2)"
9.684750003E-3,7.943527249E-1,-1.881945069E0,-2.274452283E0
1.965975000E-2,2.424600595E0,-1.959888746E0,-2.351850123E0
2.963475000E-2,4.023249820E0,-1.548718388E0,-2.064522039E0
3.960875000E-2,4.400716826E0,-7.415568991E-1,-1.524315326E0
4.958375001E-2,4.068238297E0,-8.986255369E-1,-1.160878129E0
5.955875000E-2,3.307875729E0,-1.034823854E0,-9.655401957E-1
6.953275000E-2,2.286032694E0,-1.628019789E0,-7.159465331E-1
7.950775000E-2,1.234230865E0,-2.172642026E0,-3.279802662E-1
8.948275000E-2,1.870758176E-1,-2.248237169E0,1.569924778E-1
9.945675000E-2,-4.824151719E-1,-1.849870752E0,5.957289487E-1
1.094317500E-1,-9.792273581E-1,-1.544663344E0,7.788619888E-1
1.194067500E-1,-1.396507471E0,-1.351811062E0,7.984884605E-1
1.293807500E-1,-2.188633869E0,-1.065338426E0,5.243084255E-1
1.393557500E-1,-3.091764393E0,-1.376869597E0,4.870862201E-2
1.493297500E-1,-3.714375331E0,-2.022282630E0,-3.850251174E-1
1.593047500E-1,-4.299298625E0,-2.481705673E0,-8.913168097E-1
1.692797500E-1,-5.603724144E0,-2.846823944E0,-1.190041702E0
1.792547500E-1,-7.381223323E0,-2.587683533E0,-1.321478924E0
1.892287500E-1,-8.837967641E0,-1.586570924E0,-1.566325524E0
1.992037500E-1,-1.009211529E1,-4.487480736E-1,-2.051351770E0
2.091787500E-1,-1.013379541E1,-3.900952381E-1,-2.500862321E0
2.191527500E-1,-9.583457231E0,-8.334963253E-1,-3.213380046E0
2.291277500E-1,-8.341325608E0,-1.519470323E0,-4.036910670E0
2.391027500E-1,-6.153738391E0,-2.067940613E0,-4.673629770E0
2.490767500E-1,-4.819478624E0,-1.268811298E0,-1.641613981E0
2.590517500E-1,-3.745961697E0,3.096339693E-1,3.056969367E0
2.690267500E-1,-2.205808603E0,1.178479564E0,4.296402499E0
2.790007500E-1,-1.532794958E0,3.352766266E0,5.998097790E0
2.889757500E-1,-2.612214357E-1,3.801049486E0,6.851127616E0
2.989507500E-1,1.468318588E0,1.486078044E0,4.139036384E0
3.089247500E-1,1.431501595E0,6.840106492E-1,2.137522772E0
3.188997500E-1,4.699832605E-1,1.441210750E0,1.218307727E0
3.288747500E-1,2.358911513E-1,1.755723125E0,-2.036789864E-1
3.388487500E-1,1.500141767E0,1.367491833E0,-1.926920097E0
3.488237500E-1,2.527966504E0,1.368475481E0,-3.455240766E0
3.587987500E-1,2.972747827E0,1.428452711E0,-4.364731892E0
3.687727500E-1,3.330601225E0,1.228217880E0,-4.204338089E0
3.787477500E-1,4.053732232E0,9.029018980E-1,-2.856461910E0
3.887227500E-1,3.071930637E0,9.891024283E-1,-7.843665576E-1
3.986967500E-1,1.365921563E0,1.144403160E0,9.664757502E-1
4.086717500E-1,3.634378550E-1,1.358111583E-1,1.853764413E0
4.186467500E-1,-6.338264092E-1,-1.264474564E0,1.977873319E0
4.286207500E-1,-1.737190521E0,-1.867209354E0,2.304654906E0
4.385957500E-1,-2.481731400E0,-2.253416925E0,2.710370396E0
4.485711667E-1,-2.212397538E0,-2.685434653E0,3.053134763E0
4.585451667E-1,-1.354171730E0,-2.797391583E0,3.160258092E0
4.685201667E-1,-1.766910164E-1,-2.549993843E0,2.631865679E0
4.784951667E-1,6.821680453E-1,-2.533297118E0,2.781227540E0
4.884691667E-1,2.039772821E0,-3.064860184E0,2.161823215E0
4.984441667E-1,3.768700934E0,-3.645150729E0,1.128579864E0
5.084191667E-1,3.169799286E0,-2.763929138E0,1.521363652E-1
5.183931667E-1,-1.047022900E-1,-6.072581962E-1,-2.515428320E0
5.283681667E-1,-2.863131244E0,2.542310894E-1,-5.919283755E0
5.383431667E-1,-5.239469506E0,7.181845549E-1,-6.227844248E0
5.483171667E-1,-3.825048505E0,-1.084500921E0,-4.450890614E0
5.582921667E-1,-1.210820952E0,-2.052896020E0,-2.826794307E0
5.682671667E-1,-7.671839297E-2,-1.462360860E0,-1.078873268E0
5.782411667E-1,2.871146607E-1,-9.680571297E-1,1.751100755E-1
5.882161667E-1,3.694504738E-1,-5.636353362E-1,1.079072074E0
5.981911667E-1,6.822960994E-1,-3.263228729E-1,1.599218159E0
6.081651667E-1,1.285449843E0,-2.412631345E-1,1.700753304E0
6.181401667E-1,1.593952156E0,-1.376107121E-1,1.012852356E0
6.281151667E-1,3.071089223E0,-1.773021966E-1,3.327282053E-1
6.380891667E-1,3.506303331E0,-3.258077332E-1,6.662843764E-2
6.480641667E-1,2.643218633E0,-2.399273381E-1,-1.113029194E-1
6.580391667E-1,2.234642977E0,3.922742030E-1,-3.603580534E-1
6.680131667E-1,1.756379329E0,1.323503230E0,-2.794080305E-1
6.779881667E-1,1.224645232E0,2.174255565E0,-6.426090002E-4
6.879631667E-1,5.269253469E-1,2.523367084E0,6.017240989E-1
6.979371667E-1,-2.943508825E-1,2.338876613E0,1.514131815E0
7.079121667E-1,-5.231135470E-1,1.908707190E0,2.362676243E0
7.178871667E-1,-3.193149850E-1,1.224248498E0,3.315098795E0
7.278611667E-1,-4.904884225E-1,7.248074037E-1,4.024967147E0
7.378361667E-1,-8.141160214E-1,5.929591227E-1,4.110235339E0
7.478111667E-1,-1.058983964E0,4.460051447E-1,3.925703645E0
7.577851667E-1,-1.294985774E0,2.642526323E-1,4.053578743E0
7.677601667E-1,-1.427700613E0,2.771322942E-1,3.995135822E0
7.777351667E-1,-1.970599383E0,4.987291959E-1,3.999461592E0
7.877091667E-1,-2.627868522E0,7.235189697E-1,4.227421727E0
7.976841667E-1,-2.415626289E0,2.474003720E-1,4.240237069E0
8.076591667E-1,-1.727878538E0,-4.087727067E-1,3.795657476E0
8.176331667E-1,-9.901324153E-1,-8.930303362E-1,3.049719404E0
8.276081667E-1,-9.935238004E-2,-1.245847236E0,1.964148735E0
8.375831667E-1,4.375828153E-1,-1.091299771E0,8.305034280E-1
8.475571667E-1,4.389019471E-1,-6.504469004E-1,-1.979282498E-4
8.575321667E-1,6.654599190E-2,-1.857625329E-1,-3.174617100E-1
8.675071667E-1,-3.170097202E-1,1.799237958E-1,-2.513910967E-1
8.774811667E-1,-2.758295345E-1,7.796911240E-2,-1.353019390E-1
8.874561667E-1,-2.012845516E-2,-2.201432839E-1,-9.570751816E-2
8.974311667E-1,2.018166482E-2,-3.367253619E-1,-2.024969718E-1
9.074051667E-1,2.833958316E-1,-5.311511296E-1,-5.978362852E-1
9.173801667E-1,4.774111247E-1,-7.855661139E-1,-1.156597967E0
9.273551667E-1,4.044279331E-1,-1.115291189E0,-1.711073640E0
9.373291667E-1,4.441170788E-1,-1.473024720E0,-2.037248871E0
9.473041667E-1,3.790855157E-1,-1.761473131E0,-2.158662795E0
9.572791667E-1,6.055259585E-2,-2.466784163E0,-3.845217891E0
9.672531667E-1,-3.914944768E-2,-2.591618124E0,-6.140599698E0
9.772281667E-1,-1.326440871E-2,-2.333877536E0,-4.825365601E0
9.872031667E-1,-9.695010996E-1,-1.805854667E0,-4.253918384E0
9.971771667E-1,-1.059869233E0,-2.317416455E0,-4.014603542E0
1.007152167E0,3.731698877E-1,-4.789392360E0,-3.010780456E0
1.017127167E0,4.369542396E-1,-5.195469793E0,-2.665929219E0
1.027101167E0,9.336249232E-3,-4.574306041E0,-2.401969532E0
1.037076167E0,-1.862589616E-1,-4.281007365E0,-1.827512169E0
1.047051167E0,-8.841949010E-1,-3.854197460E0,-1.230670495E0
1.057025167E0,-1.232753273E0,-3.203562571E0,-7.572448325E-1
1.067000167E0,-6.498975545E-1,-2.333962905E0,-6.920308363E-1
1.076975167E0,6.871121585E-1,-1.525655508E0,-1.249756099E0
1.086950167E0,1.936351072E0,-1.639991378E0,-1.886169244E0
1.096924167E0,3.156287248E0,-2.178708805E0,-1.821992397E0
1.106899167E0,4.082293249E0,-2.251954536E0,-1.252556623E0
1.116874167E0,4.660819690E0,-1.834373292E0,-7.359282962E-1
1.126848167E0,5.110882217E0,-8.487017173E-1,-9.417256558E-1
1.136823167E0,4.790427318E0,-2.329530716E-1,-1.057743770E0
1.146797167E0,3.865019487E0,8.872489017E-1,-4.528025329E-1
1.156772167E0,2.770256410E0,2.042402022E0,1.187867707E-1
1.166747167E0,1.642165958E0,2.381877329E0,5.499599413E-1
1.176722167E0,2.215375232E0,1.832163044E0,1.394324852E0
1.186696167E0,3.370827145E0,8.437730992E-1,2.290528618E0
1.196671167E0,2.765827729E0,4.452344817E-1,2.752326508E0
1.206646167E0,2.178418198E0,4.405502772E-1,2.967714543E0
1.216620167E0,1.521769741E0,6.377055252E-1,3.106089194E0
1.226595167E0,6.301716802E-1,7.058483917E-1,3.213202876E0
1.236570167E0,-3.341549259E-1,8.205649155E-1,3.250499341E0
1.246544167E0,-8.098919928E-1,1.020073668E0,3.584167778E0
1.256519167E0,-1.279165255E0,1.780890564E0,4.011754486E0
1.266494167E0,-1.350974326E0,2.845745718E0,4.060462962E0
1.276468167E0,-7.944494963E-1,3.484338266E0,3.935638064E0
1.286443167E0,8.393678069E-2,3.518388357E0,3.748974475E0
1.296418167E0,3.967639875E-1,3.196971590E0,3.692213506E0
1.306392167E0,-6.214219067E-1,2.436941144E0,3.924842642E0
1.316367167E0,-2.220211757E0,1.548207634E0,5.253739636E0
1.326342167E0,-4.273230276E0,1.745358789E0,5.336170174E0
1.336316167E0,-5.026702192E0,2.457533283E0,4.271717309E0
1.346291167E0,-4.622293263E0,3.074008738E0,3.637539409E0
1.356266167E0,-4.664370996E0,4.162141072E0,3.481597676E0
1.366240167E0,-3.831993535E0,4.735354148E0,3.571658830E0
1.376215167E0,-2.593698564E0,3.852984747E0,3.298157072E0
1.386190167E0,-1.955054560E0,2.559769510E0,3.131998499E0
1.396164167E0,-2.055735135E0,1.876586680E0,2.986532637E0
1.406139167E0,-2.235323301E0,1.573015031E0,2.384890984E0
1.416114167E0,-1.934225316E0,7.930958658E-1,2.505155346E0
1.426088167E0,-1.447908297E0,-2.590550423E-2,3.116301064E0
1.436063167E0,-9.422998524E-1,-3.430555576E-1,2.664294337E0
1.446037792E0,-2.300519755E-1,-7.876029915E-1,1.421247625E0
1.456011792E0,1.253517321E-1,-1.879469358E0,2.416981673E-1
1.465986792E0,-3.590216723E-1,-2.991581708E0,-1.684641302E-1
1.475961792E0,-9.891532990E-1,-3.816667691E0,-6.124385369E-1
1.485935792E0,-1.612406846E0,-4.836238498E0,-1.205681834E0
1.495910792E0,-2.544934247E0,-5.861606235E0,-1.955812944E0
1.505885792E0,-2.279050388E0,-5.512248548E0,-3.650077593E0
1.515859792E0,-1.332513204E0,-4.404889399E0,-5.231296853E0
1.525834792E0,-1.868448526E-2,-4.247936098E0,-5.909846349E0
1.535809792E0,6.271972746E-1,-4.684044830E0,-6.028299243E0
1.545783792E0,7.548792683E-1,-5.019237052E0,-6.571053003E0
1.555758792E0,9.450904360E-1,-4.761937344E0,-7.132812552E0
1.565733792E0,1.184670449E0,-4.332796154E0,-7.047271296E0
1.575707792E0,1.166541450E0,-4.253336002E0,-5.671092839E0
1.585682792E0,1.058593663E0,-4.405950669E0,-3.367065339E0
1.595657792E0,1.066381277E0,-4.315163291E0,-1.520679528E0
1.605631792E0,1.137901422E0,-3.758404865E0,-2.461209647E-1
1.615606792E0,1.430355833E0,-2.924452749E0,3.158385229E-1
1.625581792E0,1.964384085E0,-2.400117134E0,6.881167102E-1
1.635555792E0,2.737850848E0,-2.569168909E0,8.254502642E-1
1.645530792E0,2.878428145E0,-2.430756544E0,7.636101115E-1
1.655505792E0,1.597354505E0,-1.549903911E0,7.433623731E-1
1.665479792E0,-6.489239931E-2,-6.466079110E-1,1.040375785E0
1.675454792E0,-8.300021023E-1,-3.283363616E-1,1.229161913E0
1.685429792E0,-8.530562118E-1,-5.110501564E-1,9.091419735E-1
1.695404792E0,-3.262726600E-1,-1.064345861E0,2.132654234E-1
1.705378792E0,2.680637743E-1,-1.656743651E0,-6.646588504E-1
1.715353792E0,5.560766405E-1,-2.053894140E0,-1.662976783E0
1.725327792E0,4.125502273E-1,-2.027481682E0,-2.663613721E0
1.735302792E0,-1.705454466E-1,-1.624733069E0,-3.218478234E0
1.745277792E0,-7.541331636E-1,-1.218945658E0,-3.256531913E0
1.755251792E0,-9.609215531E-1,-1.092043537E0,-2.870750751E0
1.765226792E0,-7.771162295E-1,-1.123072956E0,-2.244078337E0
1.775201792E0,-5.210593836E-1,-9.233689070E-1,-1.639513514E0
1.785176792E0,-6.606707570E-1,-6.633391339E-1,-1.288283111E0
1.795150792E0,-9.869325265E-1,-4.959590775E-1,-9.489319105E-1
1.805125792E0,-1.123185223E0,-2.771966136E-1,-4.978689243E-1
1.815100792E0,-1.078033608E0,-1.946976632E-1,-7.826088846E-2
1.825074792E0,-1.167641311E0,-1.775588894E-1,2.756587958E-1
1.835049792E0,-1.583894361E0,8.865723789E-2,6.127342598E-1
1.845024792E0,-2.083500931E0,3.380059022E-1,1.050532837E0
1.854998792E0,-2.475571944E0,4.364700902E-1,1.425867949E0
1.864973792E0,-2.917537247E0,3.894514596E-1,1.565174500E0
1.874948792E0,-2.833678819E0,1.477825284E-2,1.387011301E0
1.884922792E0,-2.388287340E0,-1.973522991E-1,7.112573585E-1
1.894897792E0,-1.846307167E0,1.385111833E-1,-8.947058558E-2
1.904872792E0,-1.179493325E0,5.806922489E-1,-4.935166955E-1
1.914846792E0,-7.313904914E-1,8.895953894E-1,-7.095596194E-1
1.924821792E0,-9.433201915E-1,8.526164281E-1,-9.556619096E-1
1.934796792E0,-1.340654867E0,-2.733339429E-1,-1.372852560E0
1.944770792E0,-1.565952764E0,-1.837317950E-1,-1.376845039E0
1.954745792E0,-1.245560430E0,5.477911359E-1,-1.520539779E0
1.964720792E0,-6.685928571E-1,1.473547461E0,-1.015630953E0
1.974694792E0,-4.864278236E-1,1.633035530E0,-2.325113145E-1
1.984669792E0,-7.207163993E-1,1.015408759E0,4.774099553E-1
1.994644792E0,-1.035707661E0,4.641882312E-1,6.277754912E-1
2.004618792E0,-9.789192098E-1,2.130286843E-1,7.419619650E-2
2.014593792E0,-1.288288958E0,-6.396491396E-1,-9.488615978E-1
2.024568792E0,-1.695966774E0,-1.616884936E0,-2.833549595E0
2.034542792E0,-1.213482897E0,-1.764355223E0,-4.227819922E0
2.044517792E0,-9.836197865E-1,-1.423782978E0,-4.910964745E0
2.054492792E0,-1.042688359E0,-9.137590080E-1,-4.730486341E0
2.064466792E0,-9.444398602E-1,-8.525217032E-1,-3.636331374E0
2.074441792E0,-6.431981072E-1,-1.393251742E0,-2.604941005E0
2.084416792E0,-8.943776809E-1,-1.519675561E0,-1.650745577E0
2.094390792E0,-1.690368649E0,-1.418073172E0,-1.300047709E0
2.104365792E0,-2.751934744E0,-1.363975902E0,-1.135028173E0
2.114340792E0,-3.506631360E0,-1.106090888E0,-9.814481306E-1
2.124314792E0,-3.138612285E0,-6.216227585E-1,-1.031532456E0
2.134289792E0,-1.814480479E0,-6.095722318E-2,-9.741028583E-1
2.144264792E0,-3.160001984E-1,3.938602602E-1,-6.062170994E-1
2.154238792E0,1.050877677E0,3.166840303E-1,-3.341537565E-1
2.164213792E0,1.879557651E0,-1.042125857E-1,-1.721981621E-1
2.174188792E0,2.086275435E0,4.744196892E-2,-7.246922135E-2
2.184162792E0,1.648715862E0,2.584416693E-1,5.368796468E-2
2.194137792E0,7.012514569E-1,3.682459474E-1,4.386060780E-1
2.204112792E0,-3.419846401E-1,4.636654902E-1,1.187711586E0
2.214086792E0,-8.746711023E-1,3.037201685E-1,1.631595946E0
2.224061792E0,-5.338086891E-1,1.368628532E-1,1.389582029E0
2.234036792E0,5.977735738E-1,3.163320279E-1,6.035542774E-1
2.244010792E0,1.802322949E0,5.481109786E-1,-1.381849086E-1
2.253985792E0,2.543250541E0,2.019610745E-1,-4.089209336E-1
2.263960792E0,2.540797049E0,-5.080388403E-1,-2.224970806E-1
2.273934792E0,1.855786380E0,-7.811751473E-1,1.400302899E-1
2.283909792E0,1.060273860E0,-1.963044780E-1,6.846130586E-1
2.293884792E0,6.063622566E-1,6.991585922E-1,1.656249561E0
2.303858792E0,7.839800566E-1,1.012278160E0,2.588985708E0
2.313833792E0,1.407243982E0,9.774287546E-1,2.942635835E0
2.323808792E0,2.124838553E0,7.258160484E-1,2.601156102E0
2.333782792E0,2.382237518E0,5.026032686E-1,1.880959813E0
2.343757792E0,2.305034537E0,2.882674393E-1,1.138630643E0
2.353732792E0,2.312727572E0,-4.203422999E-1,2.770340610E-1
2.363706792E0,1.783336893E0,-1.206826719E0,-4.519231117E-1
2.373681792E0,1.033286182E0,-1.593281188E0,-9.223702025E-1
2.383656792E0,4.230308497E-1,-1.488273089E0,-8.519545233E-1
2.393631792E0,4.021627218E-2,-1.107960827E0,-2.638825035E-1
2.403605792E0,-1.602157554E-1,-1.058596002E0,4.644759142E-1
2.413580792E0,-9.343850613E-2,-9.464882129E-1,1.319888481E0
2.423555792E0,4.338116536E-1,-6.430615747E-1,1.915770042E0
2.433529792E0,9.617212330E-1,-6.136418939E-1,2.033103780E0
2.443504792E0,1.128842696E0,-7.208327588E-1,2.100344421E0
2.453480125E0,1.043757669E0,-8.317924467E-1,1.993024040E0
2.463454125E0,8.337467323E-1,-1.111806541E0,1.577049025E0
2.473429125E0,5.174842863E-1,-1.319561622E0,1.173879998E0
2.483404125E0,4.728441569E-1,-1.380476745E0,7.938296914E-1
2.493378125E0,6.317515978E-1,-1.538561775E0,5.557942200E-1
2.503353125E0,8.580955616E-1,-1.738571633E0,2.965140599E-1
2.513328125E0,9.788738208E-1,-1.838358169E0,3.843608737E-2
2.523302125E0,6.983170317E-1,-1.457619938E0,1.642751849E-1
2.533277125E0,4.068404943E-1,-1.198287007E0,3.838539201E-1
2.543252125E0,4.118484883E-1,-1.223724441E0,6.410589033E-1
2.553226125E0,4.567201674E-1,-1.139821867E0,8.157017863E-1
2.563201125E0,6.851591885E-1,-9.844027287E-1,7.737638015E-1
2.573176125E0,4.819337267E-1,-4.987477608E-1,9.095455045E-1
2.583150125E0,1.269081878E-1,2.039621378E-1,1.075760211E0
2.593125125E0,3.310936893E-1,3.605568588E-1,1.148942792E0
2.603100125E0,6.465362095E-1,1.687477201E-1,1.218356259E0
2.613074125E0,7.495680231E-1,-2.207897667E-1,1.006309322E0
2.623049125E0,4.207813527E-1,-5.512091258E-1,5.402230847E-1
2.633024125E0,-1.577612405E-1,-6.683983641E-1,-2.634579957E-2
2.642998125E0,-5.784504265E-1,-7.809118033E-1,-4.765012980E-1
2.652973125E0,-5.731462710E-1,-8.758491701E-1,-6.495397049E-1
2.662948125E0,-4.451420226E-1,-9.779294224E-1,-6.398298186E-1
2.672922125E0,-5.111055587E-1,-5.587667982E-1,-1.785552549E-1
2.682897125E0,-2.352309275E-1,1.849213744E-1,3.552101648E-1
2.692872125E0,3.879175888E-1,6.026466434E-1,6.859468085E-1
2.702846125E0,1.232540142E0,9.105290061E-1,1.060145806E0
2.712821125E0,1.795636511E0,1.893315820E-1,-9.580031347E-1
2.722796125E0,-3.307989750E0,-8.758901006E-1,3.259259639E0
2.732770125E0,1.533267267E0,2.369831042E0,1.208654559E-1
2.742745125E0,2.601786578E-1,-1.231276851E0,1.013922397E0
2.752720125E0,-1.050251294E-2,1.285649415E-1,4.559240690E0
2.762694125E0,-1.760963180E-1,8.511333550E-1,6.829315163E0
2.772669125E0,2.391518511E-2,7.126086500E-1,4.370898950E0
2.782644125E0,-2.264530143E-1,3.179985209E-1,7.450931489E-2
2.792618125E0,-9.390593255E-1,-3.768850258E-1,-1.796225472E0
2.802593125E0,-1.098204894E0,-9.778759935E-1,-1.994583492E0
2.812568125E0,-6.856526935E-1,-1.195824379E0,-1.546325415E0
2.822542125E0,-1.549419323E-1,-9.896810102E-1,-1.213922900E0
2.832517125E0,3.130913548E-1,-4.528178819E-1,-1.300027828E0
2.842492125E0,4.093101754E-1,1.541302292E-1,-9.481464833E-1
2.852466125E0,1.399505119E-1,6.523250992E-1,3.889328116E-1
2.862441125E0,-2.634276998E-1,6.257496502E-1,1.688701023E0
2.872416125E0,-5.230024133E-1,2.565514838E-1,1.910613967E0
2.882390125E0,-2.436836990E-1,-5.825197231E-3,1.009901851E0
2.892365125E0,1.710983008E-2,-1.834904511E-1,2.282612658E-1
2.902340125E0,9.158711320E-2,-3.217762973E-1,2.414952689E-1
2.912315125E0,1.645655905E-1,-2.403819591E-1,1.459687221E-1
2.922289125E0,-4.489963610E-2,-1.630628743E-1,1.239036691E-1
2.932264125E0,-5.024070945E-1,-1.944692563E-1,9.945762992E-2
2.942239125E0,-6.690004081E-1,-2.038659146E-1,2.233841032E-1
2.952213125E0,-2.836619895E-1,-1.735091809E-1,4.948685718E-1
2.962188125E0,3.488903114E-1,-8.122403808E-2,7.235835814E-1
2.972163125E0,6.440000528E-1,-3.549250765E-2,8.282645291E-1
2.982137125E0,2.960131180E-1,-2.282757559E-2,8.919921631E-1
2.992112125E0,-4.227224822E-1,2.029289714E-1,1.106117785E0
3.002087125E0,-1.108500379E0,4.472020698E-1,1.626113597E0
3.012061125E0,-1.640682811E0,5.389595745E-1,2.419982464E0
3.022036125E0,-1.379450851E0,5.715810444E-1,3.227747240E0
3.032011125E0,-3.578398769E-1,4.102752949E-1,3.716048804E0
3.041985125E0,8.189625592E-1,4.456327502E-2,3.860520054E0
3.051960125E0,1.759381435E0,-4.135622341E-1,3.621605746E0
3.061935125E0,2.046819301E0,-7.748568653E-1,2.976250893E0
3.071909125E0,1.621547944E0,-1.121150976E0,2.253911015E0
3.081884125E0,7.443799348E-1,-1.269866720E0,1.585174316E0
3.091859125E0,-3.586614838E-1,-1.170751006E0,1.217055838E0
3.101833125E0,-1.355938320E0,-1.048620505E0,1.345512734E0
3.111808125E0,-1.731705540E0,-1.111044649E0,1.732596656E0
3.121783125E0,-1.383595650E0,-1.050182443E0,1.970770707E0
3.131757125E0,-3.472866029E-1,-1.353790053E0,2.109182487E0
3.141732125E0,1.295452674E0,-2.462904243E0,1.463320681E0
3.151707125E0,2.595776664E0,-3.437902895E0,2.213369930E-1
3.161681125E0,2.711954407E0,-4.104365027E0,-2.672662872E-1
3.171656125E0,1.672417113E0,-4.297581298E0,-5.361078143E-1
3.181631125E0,3.567047131E-1,-3.903764892E0,-9.679235208E-1
3.191605125E0,-2.991885763E-1,-3.496951295E0,-1.397610841E0
3.201580125E0,-5.925960106E-1,-2.929346284E0,-1.798038694E0
3.211555125E0,-5.869499391E-1,-1.940614423E0,-1.814971353E0
3.221529125E0,-1.585174316E-1,-1.077815361E0,-1.310833190E0
3.231504125E0,5.759741306E-1,-6.328745556E-1,-3.002860987E-1
3.241479125E0,1.103648506E0,-4.689067881E-1,1.021896537E0
3.251453125E0,1.066571896E0,-4.273662677E-1,2.445924514E0
3.261428125E0,2.817293751E0,-3.790387380E-1,7.239089205E0
3.271403125E0,2.878721091E0,5.123928232E-1,9.680528612E0
3.281377125E0,1.970833272E0,-3.838393021E-1,5.534696009E0
3.291352125E0,2.913289245E0,3.180519864E-2,7.776010952E0
3.301327125E0,3.034163471E0,4.906685168E-1,5.741198616E0
3.311302125E0,1.651506300E0,-9.844037519E-1,8.244744809E0
3.321276125E0,1.600983433E0,6.480103657E-1,6.233628899E0
3.331251125E0,2.527563046E0,1.621040845E0,2.456677251E0
3.341226125E0,2.579872822E0,1.064982038E0,-1.605297509E-1
3.351200125E0,1.567164892E0,1.737223850E0,-1.990322042E-1
