"Time (s)","X (µT)","Y (µT)","Z (µT)"
9.684750003E-3,-1.860463905E1,1.415114689E1,6.229382324E1
1.965975000E-2,-1.971383095E1,1.382175541E1,6.199166870E1
2.963475000E-2,-2.075537682E1,1.354020596E1,6.169587708E1
3.960875000E-2,-2.403480530E1,1.291243458E1,6.101438904E1
4.958375001E-2,-2.703524780E1,1.250897121E1,6.055277252E1
5.955875000E-2,-2.989726448E1,1.198227024E1,5.933466339E1
6.953275000E-2,-3.273081970E1,1.081603241E1,5.819592285E1
7.950775000E-2,-3.581799316E1,1.028639984E1,5.639943695E1
8.948275000E-2,-3.940442657E1,9.523634911E0,5.430667114E1
9.945675000E-2,-4.314101410E1,8.829384804E0,5.165255737E1
1.094317500E-1,-4.661226654E1,7.852119923E0,4.833085632E1
1.194067500E-1,-5.016781616E1,6.993064404E0,4.454988098E1
1.293807500E-1,-5.345091248E1,6.252087593E0,3.951172638E1
1.393557500E-1,-5.674491882E1,5.559465408E0,3.397170258E1
1.493297500E-1,-5.987651825E1,4.878890991E0,2.741920471E1
1.593047500E-1,-6.206092072E1,4.277098656E0,2.033786011E1
1.692797500E-1,-6.357093048E1,3.916604757E0,1.289102173E1
1.792547500E-1,-6.411794281E1,3.484549284E0,5.518280029E0
1.892287500E-1,-6.387753296E1,3.688625336E0,-1.252075195E0
1.992037500E-1,-6.324870300E1,3.961009979E0,-7.189788818E0
2.091787500E-1,-6.208855438E1,4.812641144E0,-1.235601807E1
2.191527500E-1,-6.037834930E1,6.445818901E0,-1.715202332E1
2.291277500E-1,-5.872826385E1,8.438864708E0,-2.162161255E1
2.391027500E-1,-5.666091156E1,1.117156410E1,-2.578712463E1
2.490767500E-1,-5.394837189E1,1.402812576E1,-2.941836548E1
2.590517500E-1,-5.171931458E1,1.726051712E1,-3.230429077E1
2.690267500E-1,-4.974457550E1,2.019964981E1,-3.403030396E1
2.790007500E-1,-4.759281921E1,2.313323975E1,-3.559597778E1
2.889757500E-1,-4.549224091E1,2.509347534E1,-3.722048950E1
2.989507500E-1,-4.271408844E1,2.659646988E1,-3.909242249E1
3.089247500E-1,-4.027349091E1,2.687549591E1,-4.127162170E1
3.188997500E-1,-3.781614685E1,2.697476578E1,-4.366091919E1
3.288747500E-1,-3.532290649E1,2.652951813E1,-4.551208496E1
3.388487500E-1,-3.322918320E1,2.583425903E1,-4.702075195E1
3.488237500E-1,-3.131686401E1,2.540317154E1,-4.862330627E1
3.587987500E-1,-2.945330429E1,2.497156906E1,-4.981468201E1
3.687727500E-1,-2.762845421E1,2.490936661E1,-5.073200989E1
3.787477500E-1,-2.605031013E1,2.488232040E1,-5.180654907E1
3.887227500E-1,-2.445866585E1,2.542827225E1,-5.207328796E1
3.986967500E-1,-2.331522179E1,2.585958862E1,-5.253866577E1
4.086717500E-1,-2.210371399E1,2.589627075E1,-5.267379761E1
4.186467500E-1,-2.073340416E1,2.583773422E1,-5.340907288E1
4.286207500E-1,-1.914181137E1,2.537832260E1,-5.419094849E1
4.385957500E-1,-1.697505188E1,2.460202789E1,-5.496357727E1
4.485711667E-1,-1.462234592E1,2.336567307E1,-5.621038818E1
4.585451667E-1,-1.225793743E1,2.200361633E1,-5.736402893E1
4.685201667E-1,-1.002594948E1,2.006454849E1,-5.844006348E1
4.784951667E-1,-7.186591148E0,1.778760719E1,-5.940695190E1
4.884691667E-1,-4.437073231E0,1.534447670E1,-6.033596802E1
4.984441667E-1,-2.038508892E0,1.246363640E1,-6.117288208E1
5.084191667E-1,1.347787380E-1,9.313571930E0,-6.143670654E1
5.183931667E-1,1.666570902E0,6.266911507E0,-6.197026062E1
5.283681667E-1,2.430886745E0,3.509480000E0,-6.224894714E1
5.383431667E-1,2.134678841E0,1.794253230E0,-6.223121643E1
5.483171667E-1,1.115486145E0,4.193553925E-1,-6.221092224E1
5.582921667E-1,3.364213705E-1,-3.955812454E-1,-6.219294739E1
5.682671667E-1,-6.791843176E-1,-7.790012360E-1,-6.250505066E1
5.782411667E-1,-1.473220110E0,-1.220572948E0,-6.278373718E1
5.882161667E-1,-2.408029318E0,-1.147926807E0,-6.265753174E1
5.981911667E-1,-2.730607986E0,-1.102548122E0,-6.271224976E1
6.081651667E-1,-3.134297848E0,-1.089752674E0,-6.293203735E1
6.181401667E-1,-3.307963371E0,-9.036178589E-1,-6.259898376E1
6.281151667E-1,-2.884629726E0,-6.345491409E-1,-6.267645264E1
6.380891667E-1,-1.840357184E0,-2.869367599E-3,-6.243624878E1
6.480641667E-1,-4.390382767E-1,6.689183712E-1,-6.286857605E1
6.580391667E-1,1.488083839E0,1.195367575E0,-6.310180664E1
6.680131667E-1,3.203262329E0,1.806618929E0,-6.348939514E1
6.779881667E-1,4.556128979E0,2.523362637E0,-6.371903992E1
6.879631667E-1,5.944041729E0,3.501233339E0,-6.384106445E1
6.979371667E-1,7.380146027E0,4.308991909E0,-6.422633362E1
7.079121667E-1,9.078676224E0,5.156842232E0,-6.369096375E1
7.178871667E-1,1.061454773E1,5.811056614E0,-6.376773071E1
7.278611667E-1,1.282970142E1,6.421710014E0,-6.338371277E1
7.378361667E-1,1.479331398E1,7.074621201E0,-6.264144897E1
7.478111667E-1,1.709822273E1,7.318387985E0,-6.173715210E1
7.577851667E-1,1.947184181E1,7.660480976E0,-6.120443726E1
7.677601667E-1,2.190592003E1,7.759776115E0,-6.047654724E1
7.777351667E-1,2.424626541E1,7.732572079E0,-5.976356506E1
7.877091667E-1,2.612789917E1,7.617066860E0,-5.867785645E1
7.976841667E-1,2.785458374E1,7.028699875E0,-5.744329834E1
8.076591667E-1,2.996819687E1,6.157283783E0,-5.631773376E1
8.176331667E-1,3.201254272E1,5.398227215E0,-5.506062317E1
8.276081667E-1,3.402884674E1,4.475229263E0,-5.378334045E1
8.375831667E-1,3.633978271E1,3.580750465E0,-5.207302856E1
8.475571667E-1,3.830658722E1,2.772077322E0,-5.027615356E1
8.575321667E-1,4.019711304E1,2.026435375E0,-4.895779419E1
8.675071667E-1,4.204515076E1,8.937602043E-1,-4.713937378E1
8.774811667E-1,4.359414673E1,1.633503437E-1,-4.560166931E1
8.874561667E-1,4.546154785E1,-8.560152054E-1,-4.406346130E1
8.974311667E-1,4.679967499E1,-1.455287933E0,-4.229791260E1
9.074051667E-1,4.857617188E1,-2.266211510E0,-4.049116516E1
9.173801667E-1,5.021690369E1,-3.266170979E0,-3.794532776E1
9.273551667E-1,5.183424377E1,-4.000857353E0,-3.580668640E1
9.373291667E-1,5.350157928E1,-4.325217724E0,-3.325895691E1
9.473041667E-1,5.536792755E1,-4.801590919E0,-3.022201538E1
9.572791667E-1,5.696085358E1,-5.121685028E0,-2.727014160E1
9.672531667E-1,5.791871643E1,-5.410530090E0,-2.564437866E1
9.772281667E-1,5.802732086E1,-6.099852562E0,-2.471481323E1
9.872031667E-1,5.803393555E1,-6.621500969E0,-2.397532654E1
9.971771667E-1,5.780876160E1,-7.117924690E0,-2.414997864E1
1.007152167E0,5.766200256E1,-7.800634384E0,-2.402679443E1
1.017127167E0,5.756478882E1,-8.759986877E0,-2.400326538E1
1.027101167E0,5.740383911E1,-9.344329834E0,-2.369023132E1
1.037076167E0,5.724517822E1,-1.013122463E1,-2.355041504E1
1.047051167E0,5.726380920E1,-1.116731071E1,-2.270570374E1
1.057025167E0,5.745138550E1,-1.234223747E1,-2.104394531E1
1.067000167E0,5.757171631E1,-1.380426693E1,-2.019877625E1
1.076975167E0,5.775674438E1,-1.540987873E1,-1.934033203E1
1.086950167E0,5.719116211E1,-1.690176392E1,-1.846653748E1
1.096924167E0,5.656282043E1,-1.875306702E1,-1.848982239E1
1.106899167E0,5.587944794E1,-2.069910812E1,-1.856420898E1
1.116874167E0,5.459790802E1,-2.257328415E1,-1.929046631E1
1.126848167E0,5.337874603E1,-2.392453766E1,-2.042280579E1
1.136823167E0,5.187264252E1,-2.501081085E1,-2.252490234E1
1.146797167E0,5.013537598E1,-2.578065872E1,-2.466128540E1
1.156772167E0,4.869283295E1,-2.670841217E1,-2.700375366E1
1.166747167E0,4.691020966E1,-2.687460709E1,-2.916673279E1
1.176722167E0,4.535234070E1,-2.677527237E1,-3.114312744E1
1.186696167E0,4.381097412E1,-2.679286194E1,-3.245352173E1
1.196671167E0,4.278438568E1,-2.649234772E1,-3.394107056E1
1.206646167E0,4.203308868E1,-2.588457870E1,-3.506352234E1
1.216620167E0,4.119302368E1,-2.514949036E1,-3.616725159E1
1.226595167E0,4.054384613E1,-2.461763382E1,-3.718569946E1
1.236570167E0,4.018797302E1,-2.403023529E1,-3.834149170E1
1.246544167E0,3.986231995E1,-2.341135406E1,-3.859867859E1
1.256519167E0,3.953118896E1,-2.301251602E1,-3.921418762E1
1.266494167E0,3.928701019E1,-2.256929398E1,-3.944293213E1
1.276468167E0,3.913162231E1,-2.231308746E1,-3.938545227E1
1.286443167E0,3.907251740E1,-2.221867371E1,-3.932473755E1
1.296418167E0,3.924075317E1,-2.225577164E1,-3.924560547E1
1.306392167E0,3.951532745E1,-2.209901047E1,-3.908886719E1
1.316367167E0,3.945494080E1,-2.187939835E1,-3.890681458E1
1.326342167E0,3.983792114E1,-2.206559372E1,-3.867256165E1
1.336316167E0,4.000751495E1,-2.272439194E1,-3.813739014E1
1.346291167E0,4.017077637E1,-2.342272949E1,-3.712483215E1
1.356266167E0,4.035476685E1,-2.451874161E1,-3.643424988E1
1.366240167E0,4.064758301E1,-2.577511978E1,-3.587693787E1
1.376215167E0,4.035212708E1,-2.703435898E1,-3.455584717E1
1.386190167E0,4.015711975E1,-2.828771973E1,-3.382629395E1
1.396164167E0,4.010741425E1,-2.976118851E1,-3.296318054E1
1.406139167E0,3.965928650E1,-3.098809433E1,-3.213877869E1
1.416114167E0,3.894818878E1,-3.237312317E1,-3.122009277E1
1.426088167E0,3.827145386E1,-3.377261353E1,-3.063078308E1
1.436063167E0,3.774006653E1,-3.508919525E1,-2.973248291E1
1.446037792E0,3.675990295E1,-3.662057877E1,-2.884080505E1
1.456011792E0,3.581401062E1,-3.785602188E1,-2.819468689E1
1.465986792E0,3.462309265E1,-3.922077560E1,-2.730950928E1
1.475961792E0,3.335727692E1,-4.084288025E1,-2.658720398E1
1.485935792E0,3.184747505E1,-4.263846970E1,-2.552037048E1
1.495910792E0,3.010185814E1,-4.444171143E1,-2.449096680E1
1.505885792E0,2.794738007E1,-4.588749695E1,-2.363127136E1
1.515859792E0,2.578769302E1,-4.746699142E1,-2.228524780E1
1.525834792E0,2.352962303E1,-4.888699722E1,-2.148779297E1
1.535809792E0,2.100074768E1,-5.011117554E1,-2.126029968E1
1.545783792E0,1.832429314E1,-5.109293365E1,-2.094691467E1
1.555758792E0,1.605454826E1,-5.137753677E1,-2.215225220E1
1.565733792E0,1.324190617E1,-5.139206696E1,-2.323500061E1
1.575707792E0,1.029502296E1,-5.107725143E1,-2.540165710E1
1.585682792E0,7.534496307E0,-5.012895584E1,-2.728038025E1
1.595657792E0,5.002844810E0,-4.956058502E1,-2.886445618E1
1.605631792E0,2.787236214E0,-4.829359818E1,-3.065211487E1
1.615606792E0,4.244048595E-1,-4.747702026E1,-3.239831543E1
1.625581792E0,-1.359512925E0,-4.646802902E1,-3.342846680E1
1.635555792E0,-2.513765335E0,-4.584421158E1,-3.436788940E1
1.645530792E0,-3.334991693E0,-4.481776047E1,-3.527375793E1
1.655505792E0,-3.915696383E0,-4.425981903E1,-3.557263184E1
1.665479792E0,-4.117266178E0,-4.388880539E1,-3.613621521E1
1.675454792E0,-4.387114525E0,-4.347774887E1,-3.631542969E1
1.685429792E0,-4.222858429E0,-4.317467499E1,-3.652247620E1
1.695404792E0,-4.159069061E0,-4.305627060E1,-3.673197937E1
1.705378792E0,-3.983003616E0,-4.292755890E1,-3.625476074E1
1.715353792E0,-3.688757658E0,-4.296847153E1,-3.639341736E1
1.725327792E0,-3.147239208E0,-4.297960281E1,-3.643998718E1
1.735302792E0,-2.925373554E0,-4.324700546E1,-3.673397827E1
1.745277792E0,-2.751201630E0,-4.313935852E1,-3.661651611E1
1.755251792E0,-2.454972982E0,-4.272371674E1,-3.704049683E1
1.765226792E0,-2.192481756E0,-4.217852783E1,-3.756370544E1
1.775201792E0,-1.916919947E0,-4.178736877E1,-3.780744934E1
1.785176792E0,-1.615402341E0,-4.129576111E1,-3.841456604E1
1.795150792E0,-1.582923055E0,-4.044390488E1,-3.915388489E1
1.805125792E0,-1.134758115E0,-3.980454254E1,-3.929206848E1
1.815100792E0,-6.260960102E-1,-3.938513947E1,-3.980960083E1
1.825074792E0,8.138251305E-2,-3.854951096E1,-4.079235840E1
1.835049792E0,5.288387537E-1,-3.792522430E1,-4.152128601E1
1.845024792E0,1.082786083E0,-3.717702103E1,-4.204356384E1
1.854998792E0,1.804135561E0,-3.655713654E1,-4.236895752E1
1.864973792E0,2.022788763E0,-3.593934631E1,-4.287849426E1
1.874948792E0,2.298449039E0,-3.572137070E1,-4.306048584E1
1.884922792E0,2.546288013E0,-3.537891006E1,-4.360145569E1
1.894897792E0,2.672649860E0,-3.509978104E1,-4.403645325E1
1.904872792E0,2.924913883E0,-3.490078354E1,-4.416542053E1
1.914846792E0,2.842697144E0,-3.477475739E1,-4.431582642E1
1.924821792E0,3.176763535E0,-3.420510483E1,-4.463572693E1
1.934796792E0,3.197809696E0,-3.379912567E1,-4.503904724E1
1.944770792E0,3.704101086E0,-3.327291870E1,-4.489343262E1
1.954745792E0,4.178186893E0,-3.287679291E1,-4.524394226E1
1.964720792E0,4.642462730E0,-3.233004379E1,-4.539913940E1
1.974694792E0,5.193544865E0,-3.166120911E1,-4.609190369E1
1.984669792E0,5.565400600E0,-3.047528076E1,-4.623866272E1
1.994644792E0,6.109827995E0,-2.966148758E1,-4.657287598E1
2.004618792E0,6.581657410E0,-2.894615555E1,-4.744610596E1
2.014593792E0,7.217130661E0,-2.843947220E1,-4.721237183E1
2.024568792E0,8.386664391E0,-2.785284805E1,-4.742179871E1
2.034542792E0,9.672753334E0,-2.694364548E1,-4.745578003E1
2.044517792E0,1.125597382E1,-2.600391769E1,-4.759400940E1
2.054492792E0,1.270454597E1,-2.442536163E1,-4.796742249E1
2.064466792E0,1.415326500E1,-2.261046982E1,-4.805825806E1
2.074441792E0,1.589112282E1,-2.054259491E1,-4.833323669E1
2.084416792E0,1.737738609E1,-1.871438599E1,-4.899671936E1
2.094390792E0,1.866363907E1,-1.665230560E1,-4.911349487E1
2.104365792E0,1.961223984E1,-1.471679020E1,-4.920906067E1
2.114340792E0,2.056564903E1,-1.287943172E1,-4.888914490E1
2.124314792E0,2.128886604E1,-1.153247452E1,-4.899383545E1
2.134289792E0,2.161728668E1,-9.864513397E0,-4.891476440E1
2.144264792E0,2.208629036E1,-8.438958168E0,-4.892298889E1
2.154238792E0,2.240904617E1,-7.298727036E0,-4.880615234E1
2.164213792E0,2.286703873E1,-6.043606758E0,-4.873596191E1
2.174188792E0,2.324668694E1,-4.928588867E0,-4.876264954E1
2.184162792E0,2.348883057E1,-3.600183010E0,-4.850117493E1
2.194137792E0,2.355661201E1,-2.668959618E0,-4.834877014E1
2.204112792E0,2.363797188E1,-1.547325134E0,-4.793878174E1
2.214086792E0,2.373298836E1,-8.972878456E-1,-4.829898071E1
2.224061792E0,2.353744125E1,-1.784455776E-1,-4.848074341E1
2.234036792E0,2.349572754E1,4.908704758E-1,-4.857289124E1
2.244010792E0,2.366043282E1,9.591979980E-1,-4.877795410E1
2.253985792E0,2.394141388E1,1.494546175E0,-4.880714417E1
2.263960792E0,2.395812416E1,2.221671104E0,-4.871760559E1
2.273934792E0,2.414058304E1,3.023582935E0,-4.939996338E1
2.283909792E0,2.423414612E1,3.732653379E0,-5.006132507E1
2.293884792E0,2.459735870E1,4.455394745E0,-5.082199097E1
2.303858792E0,2.500582314E1,4.966086388E0,-5.147917175E1
2.313833792E0,2.532540703E1,5.425421715E0,-5.267726135E1
2.323808792E0,2.575662613E1,5.623428345E0,-5.371406555E1
2.333782792E0,2.632846260E1,5.522570610E0,-5.431121826E1
2.343757792E0,2.680900955E1,5.006193638E0,-5.501411438E1
2.353732792E0,2.742840576E1,4.577584267E0,-5.586772156E1
2.363706792E0,2.809870720E1,4.275342464E0,-5.651382446E1
2.373681792E0,2.899988174E1,3.401907206E0,-5.735598755E1
2.383656792E0,3.011284447E1,2.605074406E0,-5.813729858E1
2.393631792E0,3.122612190E1,1.487412214E0,-5.894572449E1
2.403605792E0,3.271790314E1,2.557883263E-1,-5.918960571E1
2.413580792E0,3.397136688E1,-8.888382912E-1,-5.910726929E1
2.423555792E0,3.524845123E1,-2.164236069E0,-5.875564575E1
2.433529792E0,3.624890900E1,-3.283082008E0,-5.755593872E1
2.443504792E0,3.712104034E1,-4.496267319E0,-5.544921875E1
2.453480125E0,3.762038422E1,-5.460881233E0,-5.386112976E1
2.463454125E0,3.759922791E1,-5.854458809E0,-5.143411255E1
2.473429125E0,3.766880035E1,-6.142244339E0,-4.892695618E1
2.483404125E0,3.738211060E1,-6.022346497E0,-4.616229248E1
2.493378125E0,3.688990021E1,-5.829296112E0,-4.323930359E1
2.503353125E0,3.642519379E1,-5.219852448E0,-4.032450867E1
2.513328125E0,3.555825806E1,-4.324939728E0,-3.762478638E1
2.523302125E0,3.433919525E1,-3.315976620E0,-3.498730469E1
2.533277125E0,3.303851318E1,-2.209287167E0,-3.227177429E1
2.543252125E0,3.174286461E1,-4.968147278E-1,-2.961451721E1
2.553226125E0,3.044261742E1,1.207802773E0,-2.718452454E1
2.563201125E0,2.873563004E1,3.000863552E0,-2.465036011E1
2.573176125E0,2.707236099E1,5.035287857E0,-2.268556213E1
2.583150125E0,2.514884377E1,7.220712662E0,-2.041561890E1
2.593125125E0,2.292135620E1,9.276138306E0,-1.843627930E1
2.603100125E0,2.093461800E1,1.136652374E1,-1.679278564E1
2.613074125E0,1.893924332E1,1.370893288E1,-1.596626282E1
2.623049125E0,1.712657928E1,1.560287857E1,-1.509974670E1
2.633024125E0,1.522299194E1,1.739134598E1,-1.495401001E1
2.642998125E0,1.336103344E1,1.956935120E1,-1.444062805E1
2.652973125E0,1.130286312E1,2.152660751E1,-1.451469421E1
2.662948125E0,8.989862442E0,2.345056915E1,-1.454612732E1
2.672922125E0,7.058089256E0,2.561148834E1,-1.473953247E1
2.682897125E0,4.798898697E0,2.777282333E1,-1.494279480E1
2.692872125E0,3.686818123E0,2.885497665E1,-1.529556274E1
2.702846125E0,5.026844025E0,2.523569107E1,-1.575154114E1
2.712821125E0,7.726271629E0,3.068413925E1,-1.966365051E1
2.722796125E0,1.314888477E0,4.888919449E1,-2.550933838E1
2.732770125E0,-6.877501011E-1,5.444481659E1,-2.722029114E1
2.742745125E0,-1.385240793E0,5.610721207E1,-2.748242188E1
2.752720125E0,-1.719046235E0,5.682196045E1,-2.753312683E1
2.762694125E0,-2.068262100E0,5.698126221E1,-2.762048340E1
2.772669125E0,-2.130821705E0,5.708737183E1,-2.818678284E1
2.782644125E0,-2.605067968E0,5.712052917E1,-2.820927429E1
2.792618125E0,-2.489040852E0,5.707226562E1,-2.796035767E1
2.802593125E0,-2.494802713E0,5.683435822E1,-2.841526794E1
2.812568125E0,-2.696336269E0,5.690197372E1,-2.825582886E1
2.822542125E0,-2.991281271E0,5.675697327E1,-2.854689026E1
2.832517125E0,-3.088357449E0,5.698299408E1,-2.830776978E1
2.842492125E0,-2.751621246E0,5.696593094E1,-2.829383850E1
2.852466125E0,-2.919469595E0,5.709916306E1,-2.790824890E1
2.862441125E0,-2.928259850E0,5.720891953E1,-2.760916138E1
2.872416125E0,-3.104173183E0,5.717615891E1,-2.780439758E1
2.882390125E0,-3.223829269E0,5.719022751E1,-2.805970764E1
2.892365125E0,-2.983205318E0,5.718249512E1,-2.801336670E1
2.902340125E0,-3.122092724E0,5.700077057E1,-2.831208801E1
2.912315125E0,-3.192950249E0,5.683987045E1,-2.865274048E1
2.922289125E0,-3.300979614E0,5.686012650E1,-2.890155029E1
2.932264125E0,-3.340087414E0,5.681726074E1,-2.887394714E1
2.942239125E0,-3.366554976E0,5.688775253E1,-2.877523804E1
2.952213125E0,-3.321876526E0,5.690237808E1,-2.870974731E1
2.962188125E0,-3.341373920E0,5.673720169E1,-2.874090576E1
2.972163125E0,-3.106552839E0,5.681280899E1,-2.879722595E1
2.982137125E0,-3.162940264E0,5.668430710E1,-2.887548828E1
2.992112125E0,-3.124987125E0,5.652975464E1,-2.929760742E1
3.002087125E0,-3.002645969E0,5.640423584E1,-2.921386719E1
3.012061125E0,-3.105345964E0,5.625196457E1,-2.917460632E1
3.022036125E0,-2.589070559E0,5.593818283E1,-2.932151794E1
3.032011125E0,-2.627476215E0,5.568931580E1,-2.916996765E1
3.041985125E0,-1.846593618E0,5.546572876E1,-2.884730530E1
3.051960125E0,-1.135408640E0,5.505918884E1,-2.923086548E1
3.061935125E0,-4.183970690E-1,5.450833130E1,-2.917669678E1
3.071909125E0,5.827243328E-1,5.404548645E1,-2.881184387E1
3.081884125E0,1.069457054E0,5.361303329E1,-2.867433167E1
3.091859125E0,2.140473366E0,5.314612198E1,-2.897373962E1
3.101833125E0,3.584247589E0,5.264208984E1,-2.897361755E1
3.111808125E0,5.004539490E0,5.216553497E1,-2.837101746E1
3.121783125E0,6.667098045E0,5.184263992E1,-2.754353333E1
3.131757125E0,8.790449142E0,5.138288116E1,-2.641123962E1
3.141732125E0,1.110798550E1,5.123460007E1,-2.476432800E1
3.151707125E0,1.384395218E1,5.103573990E1,-2.236555481E1
3.161681125E0,1.596146965E1,5.097144699E1,-1.980880737E1
3.171656125E0,1.827542496E1,5.131233978E1,-1.729574585E1
3.181631125E0,2.026723480E1,5.158847046E1,-1.452507019E1
3.191605125E0,2.191895485E1,5.165052414E1,-1.167634583E1
3.201580125E0,2.374955368E1,5.180030060E1,-8.641204834E0
3.211555125E0,2.518811417E1,5.172148895E1,-5.505905151E0
3.221529125E0,2.639377594E1,5.198497772E1,-2.088470459E0
3.231504125E0,2.764852333E1,5.164808655E1,1.366165161E0
3.241479125E0,2.864915657E1,5.172027969E1,5.071838379E0
3.251453125E0,2.898554611E1,5.156151962E1,8.995040894E0
3.261428125E0,2.927640915E1,5.154921341E1,1.277595520E1
3.271403125E0,2.928856468E1,5.146999741E1,1.603175354E1
3.281377125E0,2.886690140E1,5.114046097E1,1.982379150E1
3.291352125E0,2.869601250E1,5.131262970E1,2.282409668E1
3.301327125E0,2.827377701E1,5.157263947E1,2.510186768E1
3.311302125E0,2.775118637E1,5.172812653E1,2.698211670E1
3.321276125E0,2.693158722E1,5.186577606E1,2.865745544E1
3.331251125E0,2.649908257E1,5.217913055E1,2.978968811E1
3.341226125E0,2.635111046E1,5.233866882E1,3.083779907E1
3.351200125E0,2.593343163E1,5.252283859E1,3.193449402E1
3.361175125E0,2.557939339E1,5.274189758E1,3.290751648E1
3.371150125E0,2.536992836E1,5.267408371E1,3.396157837E1
3.381124125E0,2.490630150E1,5.267790222E1,3.511122894E1
3.391099125E0,2.426094818E1,5.271141052E1,3.609323883E1
3.401074125E0,2.419521141E1,5.268495560E1,3.733911896E1
3.411048125E0,2.347541046E1,5.291471863E1,3.903214264E1
3.421023125E0,2.254451561E1,5.303779221E1,4.003924561E1
