"Time (s)","X (rad/s)","Y (rad/s)","Z (rad/s)"
1.698237500E-2,-9.608719945E-1,-1.618557423E-1,-1.162331626E-1
2.703337500E-2,-9.274575710E-1,-1.235693321E-1,-1.397866905E-1
3.708437500E-2,-8.820852637E-1,-1.099800244E-1,-2.113455683E-1
4.713437500E-2,-8.612143397E-1,-1.433086842E-1,-3.433643281E-1
5.718537500E-2,-9.146855474E-1,-2.235001922E-1,-4.636864662E-1
6.723637500E-2,-1.061792374E0,-3.129414022E-1,-5.813142657E-1
7.728637500E-2,-1.244797349E0,-4.583899379E-1,-6.716063619E-1
8.733737500E-2,-1.414350510E0,-5.930324197E-1,-7.448036075E-1
9.738837500E-2,-1.558979273E0,-7.218913436E-1,-8.397314548E-1
1.074383750E-1,-1.676820397E0,-8.761674166E-1,-9.654683471E-1
1.174893750E-1,-1.817318201E0,-1.038184047E0,-1.097399950E0
1.275403750E-1,-2.046349764E0,-1.283754945E0,-1.217105865E0
1.375903750E-1,-2.351514101E0,-1.506972313E0,-1.312542677E0
1.476413750E-1,-2.696112633E0,-1.641289949E0,-1.288060546E0
1.576913750E-1,-3.051304340E0,-1.750007391E0,-1.170650244E0
1.677423750E-1,-3.376182318E0,-1.796528578E0,-9.697927833E-1
1.777933750E-1,-3.635625839E0,-1.757361174E0,-7.408288121E-1
1.878433750E-1,-3.717611551E0,-1.608139992E0,-6.496523023E-1
1.978943750E-1,-3.651482344E0,-1.317319036E0,-7.052381039E-1
2.079453750E-1,-3.488391161E0,-9.731296897E-1,-7.287974358E-1
2.179953750E-1,-3.244657993E0,-6.820157766E-1,-6.048278213E-1
2.280463750E-1,-2.949564457E0,-4.807234704E-1,-3.632562757E-1
2.380973750E-1,-2.627402782E0,-3.691061139E-1,-3.632660955E-2
2.481473750E-1,-2.262075186E0,-4.180118740E-1,3.508932889E-1
2.581983750E-1,-1.826786757E0,-6.858427525E-1,7.292267680E-1
2.682483750E-1,-1.313262224E0,-1.095623374E0,1.045680046E0
2.782993750E-1,-7.996181250E-1,-1.470629573E0,1.248748779E0
2.883503750E-1,-3.142045438E-1,-1.872602224E0,1.266295314E0
2.984003750E-1,1.121624932E-1,-2.200836182E0,1.103186250E0
3.084513750E-1,4.838457704E-1,-2.382062197E0,7.971813083E-1
3.185023750E-1,8.343846202E-1,-2.373761654E0,3.984663785E-1
3.285523750E-1,1.181387663E0,-2.196435452E0,-2.763405442E-2
3.386033750E-1,1.508377194E0,-1.816010833E0,-3.765169382E-1
3.486543750E-1,1.833437324E0,-1.320291400E0,-5.715401769E-1
3.587043750E-1,2.174764156E0,-8.808021545E-1,-6.137920618E-1
3.687553750E-1,2.562737942E0,-7.041256428E-1,-5.560464859E-1
3.788063750E-1,2.899453163E0,-5.530381203E-1,-4.097968638E-1
3.888563750E-1,3.038591385E0,-3.793265522E-1,-2.010215521E-1
3.989073750E-1,2.931114674E0,-2.807365954E-1,-9.934951551E-3
4.089573750E-1,2.490591526E0,-7.178704739E-1,5.137501284E-2
4.190083750E-1,1.710046172E0,-8.518999219E-1,9.868153930E-2
4.290593750E-1,8.311576843E-1,-1.132420063E0,1.127283797E-1
4.391093750E-1,2.932143863E-3,-1.244743705E0,2.511008978E-1
4.491603750E-1,-7.197474837E-1,-1.221612215E0,5.298966169E-1
4.592113750E-1,-1.306656003E0,-8.956740499E-1,7.596222162E-1
4.692613750E-1,-1.570796728E0,-7.810111046E-1,7.645197511E-1
4.793123750E-1,-1.565949559E0,-7.632733583E-1,6.501527429E-1
4.893633750E-1,-1.450037360E0,-7.388598919E-1,4.916674495E-1
4.994133750E-1,-1.305527806E0,-5.014343262E-1,4.298804998E-1
5.094643750E-1,-1.168275714E0,-4.427184537E-2,5.219010115E-1
5.195143750E-1,-1.043479919E0,5.455131531E-1,7.054700255E-1
5.295653750E-1,-8.927927613E-1,1.218863845E0,9.443989992E-1
5.396163750E-1,-6.797587872E-1,1.879809022E0,1.187035084E0
5.496663750E-1,-4.154408872E-1,2.310652733E0,1.369344950E0
5.597173750E-1,-1.409043819E-1,2.537864208E0,1.432768703E0
5.697683750E-1,1.353421211E-1,2.382072449E0,1.399424076E0
5.798183750E-1,3.820469677E-1,1.764454484E0,1.369018435E0
5.898693750E-1,5.800985098E-1,7.256948948E-1,1.445591807E0
5.999203750E-1,7.426880002E-1,-3.490815461E-1,1.518506527E0
6.099703750E-1,8.552179933E-1,-1.526983857E0,1.506339312E0
6.200213750E-1,9.095773697E-1,-2.598838568E0,1.345692039E0
6.300723750E-1,9.257741570E-1,-3.360497475E0,1.126730680E0
6.401223750E-1,9.319359064E-1,-3.766740084E0,9.913928509E-1
6.501733750E-1,8.969710469E-1,-4.059823036E0,9.221581221E-1
6.602233750E-1,7.486084700E-1,-4.263208389E0,8.424223065E-1
6.702743750E-1,4.212470949E-1,-4.193958282E0,7.631139159E-1
6.803253750E-1,-7.338526845E-2,-3.880284309E0,6.706116796E-1
6.903753750E-1,-5.929482579E-1,-3.602877378E0,5.840786099E-1
7.004263750E-1,-9.327881336E-1,-3.374886990E0,4.918234944E-1
7.104773750E-1,-1.098119020E0,-3.155855656E0,3.951603472E-1
7.205273750E-1,-1.131572604E0,-3.051895857E0,2.813181877E-1
7.305783750E-1,-1.045801997E0,-3.071260929E0,1.584093124E-1
7.406293750E-1,-8.955087066E-1,-3.203522921E0,2.807048708E-2
7.506793750E-1,-7.394562364E-1,-3.566303968E0,-1.067709550E-1
7.607303750E-1,-5.467533469E-1,-3.920531034E0,-2.587378621E-1
7.707803750E-1,-3.662746549E-1,-3.975737572E0,-4.396703541E-1
7.808313750E-1,-3.197596073E-1,-3.845699072E0,-6.960677505E-1
7.908823750E-1,-5.335238576E-1,-3.296371698E0,-9.826774001E-1
8.009323750E-1,-9.676169753E-1,-2.357337236E0,-1.070657611E0
8.109833750E-1,-1.230287910E0,-1.398261070E0,-1.006119132E0
8.210343750E-1,-1.463074565E0,-5.484963655E-1,-7.068095803E-1
8.310843750E-1,-1.642041445E0,7.663140446E-2,-4.755606949E-1
8.411353750E-1,-1.804092407E0,4.958635569E-1,-4.306853712E-1
8.511863750E-1,-1.846439242E0,4.875691235E-1,-5.113309026E-1
8.612363750E-1,-1.662800193E0,3.209950626E-1,-6.611800790E-1
8.712873750E-1,-1.365458012E0,1.810102761E-1,-8.291360736E-1
8.813383750E-1,-1.108588457E0,2.269814909E-1,-9.588692784E-1
8.913883750E-1,-1.080763936E0,3.366118371E-1,-9.785305858E-1
9.014393750E-1,-1.213769436E0,3.912716210E-1,-9.732615352E-1
9.114893750E-1,-1.314366341E0,5.874534249E-1,-9.629638791E-1
9.215403750E-1,-1.337672472E0,8.124087453E-1,-9.198721051E-1
9.315913750E-1,-1.340591311E0,9.412993789E-1,-8.283706307E-1
9.416413750E-1,-1.366965890E0,8.963321447E-1,-7.484121919E-1
9.516923750E-1,-1.325762272E0,7.334556580E-1,-7.485570312E-1
9.617433750E-1,-1.273370981E0,4.251366556E-1,-8.349094987E-1
9.717933750E-1,-1.258799434E0,9.748820961E-2,-9.107451439E-1
9.818443750E-1,-1.282718897E0,-1.986329257E-1,-9.135226011E-1
9.918953750E-1,-1.287482500E0,-4.798457026E-1,-8.923389912E-1
1.001945375E0,-1.270201564E0,-6.554214954E-1,-8.509870172E-1
1.011996375E0,-1.246919870E0,-7.459138036E-1,-7.690109015E-1
1.022046375E0,-1.266307235E0,-7.613508701E-1,-6.521317363E-1
1.032097375E0,-1.326351404E0,-7.553824186E-1,-5.386639833E-1
1.042148375E0,-1.335838318E0,-7.970952392E-1,-4.899521470E-1
1.052198375E0,-1.336977363E0,-8.445413113E-1,-4.813275039E-1
1.062249375E0,-1.390784144E0,-7.138839960E-1,-4.182587862E-1
1.072300375E0,-1.522364497E0,-5.878096819E-1,-2.265359759E-1
1.082350375E0,-1.462880731E0,-8.279902935E-1,-1.298088878E-1
1.092401375E0,-1.194790959E0,-8.847939372E-1,-1.005652547E-1
1.102452375E0,-9.758977890E-1,-7.849557996E-1,-2.705055475E-2
1.112502375E0,-1.085726738E0,-6.229892373E-1,6.155015156E-2
1.122553042E0,-1.395815969E0,-3.795345426E-1,1.403999627E-1
1.132604042E0,-1.519745350E0,2.156149223E-2,2.283511162E-1
1.142654042E0,-1.398003459E0,4.179826081E-1,3.250603378E-1
1.152705042E0,-1.080896616E0,8.161960244E-1,4.147127271E-1
1.162755042E0,-7.141492963E-1,1.038594127E0,4.426628649E-1
1.172806042E0,-4.452879727E-1,1.239219904E0,3.400198519E-1
1.182857042E0,-3.313156068E-1,1.505981088E0,4.093089327E-2
1.192907042E0,-2.191629708E-1,1.825345993E0,-6.624323130E-2
1.202958042E0,1.832468063E-2,2.245559216E0,-1.947351694E-1
1.213009042E0,3.073887229E-1,2.603549480E0,-3.278878927E-1
1.223059042E0,6.175119281E-1,2.953213930E0,-5.329267383E-1
1.233110042E0,1.009888530E0,3.142502069E0,-7.777785659E-1
1.243161042E0,1.363525510E0,3.086968184E0,-9.418525100E-1
1.253211042E0,1.659020305E0,3.120918989E0,-8.934609890E-1
1.263262042E0,1.843209267E0,3.255586863E0,-5.348700881E-1
1.273312042E0,1.884426475E0,3.358149767E0,4.418500885E-2
1.283363042E0,1.842256427E0,3.477987289E0,5.936740041E-1
1.293414042E0,1.645423532E0,3.565174341E0,1.033848405E0
1.303464042E0,1.177598000E0,3.469229937E0,1.364128590E0
1.313515042E0,6.355823278E-1,3.227359772E0,1.507502079E0
1.323566042E0,3.005843461E-1,2.846233845E0,1.458602667E0
1.333616042E0,1.794919968E-1,2.344172955E0,1.389433742E0
1.343667042E0,2.192641795E-1,1.832005739E0,1.366341710E0
1.353718042E0,3.387125432E-1,1.359870791E0,1.393088341E0
1.363768042E0,5.030103922E-1,9.787122607E-1,1.466345787E0
1.373819042E0,6.873024702E-1,7.229979038E-1,1.603347063E0
1.383870042E0,8.413559794E-1,7.726309896E-1,1.830089927E0
1.393920042E0,8.971933722E-1,9.453780055E-1,2.168093681E0
1.403971042E0,8.646322489E-1,1.190916657E0,2.572824717E0
1.414021042E0,7.847134471E-1,1.439700007E0,2.954425812E0
1.424072042E0,7.281026244E-1,1.413467169E0,3.175213337E0
1.434123042E0,8.100520968E-1,1.000309944E0,3.195283890E0
1.444173042E0,1.207337260E0,3.301632702E-1,2.984819412E0
1.454224042E0,1.606551170E0,4.567086995E-1,2.766103268E0
1.464275042E0,1.406557918E0,5.607717633E-1,2.632295609E0
1.474325042E0,8.369060755E-1,6.579925418E-1,2.636066437E0
1.484376042E0,3.213287592E-1,9.354135394E-1,2.737415791E0
1.494427042E0,1.971538365E-2,1.319652796E0,2.779144764E0
1.504477042E0,-1.439880580E-1,1.517461658E0,2.742446184E0
1.514528042E0,-2.611394525E-1,1.725599408E0,2.726497650E0
1.524578042E0,-3.681772351E-1,1.878104806E0,2.712723494E0
1.534629042E0,-3.952506483E-1,1.948173404E0,2.700863600E0
1.544680042E0,-4.207866490E-1,1.895503283E0,2.690044641E0
1.554730042E0,-4.494928420E-1,1.757830620E0,2.639363289E0
1.564781042E0,-3.987314105E-1,1.606138825E0,2.571218252E0
1.574832042E0,-2.761420906E-1,1.429500103E0,2.468813896E0
1.584882042E0,-1.618360281E-1,1.393111229E0,2.357111454E0
1.594933042E0,-1.372422725E-1,1.441359162E0,2.233458757E0
1.604984042E0,-2.030244768E-1,1.678474545E0,2.105393171E0
1.615034042E0,-3.379181325E-1,2.036802530E0,1.947711110E0
1.625085042E0,-4.747939408E-1,2.260158539E0,1.762373209E0
1.635136042E0,-5.900547504E-1,2.293130159E0,1.598855615E0
1.645186042E0,-6.875562668E-1,2.168195963E0,1.441784859E0
1.655237042E0,-7.034388185E-1,1.987515211E0,1.234768510E0
1.665287042E0,-6.080934405E-1,1.922627091E0,9.655489922E-1
1.675338042E0,-5.033808351E-1,2.027265549E0,7.383882999E-1
1.685389042E0,-4.424149692E-1,2.148424149E0,5.846695900E-1
1.695439042E0,-3.994989395E-1,2.286115408E0,4.536396265E-1
1.705490042E0,-3.559708893E-1,2.511939287E0,2.732991576E-1
1.715541042E0,-3.537122607E-1,2.831394434E0,4.576852545E-2
1.725591042E0,-3.675271571E-1,3.215397835E0,-1.846292615E-1
1.735642042E0,-3.660930395E-1,3.581387281E0,-3.824973404E-1
1.745693042E0,-4.259632826E-1,3.779191494E0,-5.633627176E-1
1.755743042E0,-5.138925910E-1,3.858627319E0,-7.939852476E-1
1.765794042E0,-6.929081678E-1,3.952094078E0,-1.068709731E0
1.775844042E0,-8.151462078E-1,4.109766483E0,-1.210095406E0
1.785895042E0,-7.513930202E-1,3.458986282E0,-1.206048131E0
1.795946042E0,-3.586889207E-1,1.185836315E0,-1.123252869E0
1.805996042E0,-5.114845634E-1,-5.171192065E-2,-1.035337925E0
1.816047042E0,-1.029285908E0,-1.795760589E-3,-7.712777853E-1
1.826098042E0,-1.490045190E0,-1.347226501E-1,-4.940385222E-1
1.836148042E0,-1.732801437E0,-3.513737321E-1,-2.679284215E-1
1.846199042E0,-1.694618106E0,-5.096259117E-1,-1.564679295E-1
1.856250042E0,-1.624023795E0,-5.126057267E-1,-2.999201715E-1
1.866300042E0,-1.666329145E0,-2.844522297E-1,-6.925153732E-1
1.876351042E0,-1.761840463E0,-1.278290600E-1,-1.169570565E0
1.886401042E0,-1.788542986E0,-2.083838284E-1,-1.564747691E0
1.896452042E0,-1.717276812E0,-3.087453246E-1,-1.811434984E0
1.906503042E0,-1.642328262E0,-4.609050155E-1,-2.010446310E0
1.916553042E0,-1.600273490E0,-4.701246321E-1,-2.174355984E0
1.926604042E0,-1.564795852E0,-4.903963506E-1,-2.301741362E0
1.936655042E0,-1.342919707E0,-5.005967617E-1,-2.403247833E0
1.946705042E0,-9.030582309E-1,-5.336649418E-1,-2.492266417E0
1.956756042E0,-4.028582275E-1,2.239239961E-2,-2.355412483E0
1.966807042E0,7.831744105E-2,4.822627902E-1,-2.074056149E0
1.976857042E0,4.071981311E-1,6.814481020E-1,-1.941526771E0
1.986908042E0,4.506255090E-1,8.070963025E-1,-2.000710487E0
1.996959042E0,3.635835350E-1,9.220079780E-1,-2.109447956E0
2.007009042E0,2.503581941E-1,1.055793643E0,-2.174917459E0
2.017060042E0,1.908746213E-1,9.499277472E-1,-2.270010471E0
2.027110042E0,1.041064337E-1,1.023834705E0,-2.324255466E0
2.037161042E0,6.800222397E-2,9.490771294E-1,-2.263153553E0
2.047212042E0,2.730059996E-2,8.738985062E-1,-2.241677761E0
2.057262042E0,-3.126124665E-2,8.400710225E-1,-2.328244209E0
2.067313042E0,-5.197637901E-2,8.432614803E-1,-2.434640884E0
2.077364042E0,-4.298661277E-2,9.369373918E-1,-2.512926340E0
2.087414042E0,-1.451315917E-2,1.137113571E0,-2.510037899E0
2.097465042E0,3.071130998E-2,1.277800322E0,-2.448067904E0
2.107516042E0,8.610825241E-2,1.280312538E0,-2.291709900E0
2.117566042E0,2.174257934E-1,1.146374226E0,-1.974782109E0
2.127617417E0,4.224362075E-1,1.006969929E0,-1.555760145E0
2.137667417E0,5.844232440E-1,9.875475764E-1,-1.117649913E0
2.147718417E0,6.439142823E-1,1.084575295E0,-6.929875612E-1
2.157769417E0,6.406471133E-1,1.283074975E0,-3.637931645E-1
2.167819417E0,6.605273485E-1,1.523184299E0,-1.235941425E-1
2.177870417E0,7.679400444E-1,1.716923356E0,8.542725444E-2
2.187921417E0,8.829292655E-1,1.590179563E0,1.500390023E-1
2.197971417E0,9.384889007E-1,1.504642844E0,-6.655268837E-3
2.208022417E0,9.937492609E-1,1.545219541E0,-1.668209732E-1
2.218073417E0,9.852734804E-1,1.617295861E0,-3.316879570E-1
2.228123417E0,9.264375567E-1,1.609938383E0,-4.782931209E-1
2.238174417E0,8.354701400E-1,1.507580280E0,-6.449574232E-1
2.248224417E0,8.224927783E-1,1.416200638E0,-8.660849929E-1
2.258275417E0,8.680813313E-1,1.097521901E0,-1.139131188E0
2.268326417E0,8.527548313E-1,5.803585052E-1,-1.512929320E0
2.278376417E0,6.623324156E-1,9.047078341E-2,-1.864176273E0
2.288427417E0,3.061894774E-1,2.745199800E-1,-1.875156760E0
2.298478417E0,-1.224364340E-1,5.343707800E-1,-1.865435719E0
2.308528417E0,-4.027277529E-1,6.995626688E-1,-1.827010751E0
2.318579417E0,-3.998874724E-1,7.517688870E-1,-1.789437890E0
2.328630417E0,-2.313693017E-1,7.499938607E-1,-1.732837200E0
2.338680417E0,-8.964280039E-2,7.727820277E-1,-1.510130525E0
2.348731417E0,-5.024639145E-2,7.491056919E-1,-1.211910009E0
2.358782417E0,-8.429836482E-2,6.696654558E-1,-9.076340795E-1
2.368832417E0,-1.336893588E-1,6.068572402E-1,-6.516611576E-1
2.378883417E0,-2.292542160E-1,5.632886887E-1,-4.669592381E-1
2.388933417E0,-3.486189544E-1,3.939190805E-1,-3.354411423E-1
2.398984417E0,-4.511117935E-1,8.819378167E-2,-1.713595390E-1
2.409035417E0,-5.102944374E-1,-2.450488955E-1,-7.717337459E-3
2.419085417E0,-4.769417942E-1,-4.143742621E-1,1.004368290E-1
2.429136417E0,-3.833338022E-1,-3.541103899E-1,2.106269747E-1
2.439187417E0,-2.520745695E-1,-3.589320481E-1,3.361502886E-1
2.449237417E0,-5.254283547E-2,-3.842685819E-1,5.736206770E-1
2.459288417E0,1.918061823E-1,-1.942562908E-1,7.439939976E-1
2.469339417E0,3.506618738E-1,-4.483696818E-2,7.081326842E-1
2.479389417E0,3.713149726E-1,1.071017794E-2,6.572300792E-1
2.489440417E0,2.691041827E-1,-1.289726198E-1,6.907241344E-1
2.499490417E0,1.084958538E-1,-2.554070055E-1,8.319989443E-1
2.509541417E0,-4.470062256E-2,-2.732469738E-1,1.027159691E0
2.519592417E0,-1.219280362E-1,-1.696361601E-1,1.222411752E0
2.529642417E0,-1.133324131E-1,7.202226669E-2,1.429627180E0
2.539693417E0,-1.277148128E-1,4.220806658E-1,1.692306280E0
2.549744417E0,-1.519431919E-1,8.697274327E-1,1.967234492E0
2.559794417E0,-1.115291864E-1,1.536734462E0,2.162660837E0
2.569845417E0,1.064465493E-1,2.259883881E0,2.388496876E0
2.579896417E0,4.613638818E-1,2.708230734E0,2.550397396E0
2.589946417E0,8.089953661E-1,2.924211979E0,2.672575951E0
2.599997417E0,1.076045513E0,2.689216852E0,2.739725590E0
2.610047417E0,1.265878797E0,1.852606893E0,2.660537243E0
2.620098417E0,1.410138488E0,1.188154340E0,2.492984533E0
2.630149417E0,1.448955178E0,9.825503826E-1,2.436198711E0
2.640199417E0,1.395931363E0,9.219791889E-1,2.429424047E0
2.650250417E0,1.282703042E0,6.565603018E-1,2.432846069E0
2.660301417E0,1.134852409E0,3.127179742E-1,2.441347122E0
2.670351417E0,9.397643209E-1,1.254780293E-1,2.457465887E0
2.680402417E0,7.035840154E-1,1.776680052E-1,2.518162251E0
2.690453417E0,4.382854700E-1,2.591040134E-1,2.591776133E0
2.700503417E0,2.314705104E-1,2.604278624E-1,2.592809916E0
2.710554417E0,9.038475901E-2,2.566309869E-1,2.522270441E0
2.720605417E0,-4.064542800E-2,2.126211971E-1,2.395377636E0
2.730655417E0,-1.700247228E-1,2.049329132E-1,2.253809929E0
2.740706417E0,-2.871638536E-1,2.302846164E-1,2.107819796E0
2.750756417E0,-4.187048376E-1,1.634038538E-1,1.969053626E0
2.760807417E0,-5.705955625E-1,6.443332136E-2,1.857308507E0
2.770858417E0,-7.340500355E-1,-3.728078306E-2,1.748181462E0
2.780908417E0,-8.788180947E-1,-1.358385235E-1,1.632300735E0
2.790959417E0,-9.870545864E-1,-1.964011937E-1,1.515331149E0
2.801010417E0,-8.700387478E-1,-1.046976447E-1,1.214939356E0
2.811060417E0,-7.478318810E-1,-1.999969929E-1,1.011307478E0
2.821111417E0,-5.493816137E-1,-2.677491605E-1,8.549362421E-1
2.831162417E0,-3.132535219E-1,-3.382592797E-1,7.811256647E-1
2.841212417E0,-1.019404754E-1,-4.227531254E-1,7.536074519E-1
2.851263417E0,6.447992474E-2,-4.825594425E-1,7.052620649E-1
2.861313417E0,1.880849600E-1,-4.590210915E-1,5.990487933E-1
2.871364417E0,2.721883655E-1,-4.071483314E-1,3.977691829E-1
2.881415417E0,3.417099416E-1,-3.312905729E-1,1.613955200E-1
2.891465417E0,4.025274813E-1,-2.198793590E-1,-7.429583371E-2
2.901516417E0,4.750410914E-1,-1.141015291E-1,-2.582353055E-1
2.911567417E0,5.327429771E-1,-9.028727561E-2,-4.219382107E-1
2.921617417E0,5.509180427E-1,-1.011564359E-1,-5.867793560E-1
2.931668417E0,5.071207285E-1,-1.092178300E-1,-7.574376464E-1
2.941719417E0,4.321801662E-1,-1.227429584E-1,-8.878888488E-1
2.951769417E0,3.509042263E-1,-1.624906361E-1,-9.754019380E-1
2.961820417E0,2.778619826E-1,-2.098637372E-1,-1.050903320E0
2.971870417E0,2.088964880E-1,-2.074421346E-1,-1.105781555E0
2.981921417E0,1.538593471E-1,-1.787569523E-1,-1.191252232E0
2.991972417E0,-7.381004095E-2,-2.679964714E-2,-1.342259288E0
3.002022417E0,-2.383963168E-1,-6.355020404E-2,-1.537299395E0
3.012073417E0,-2.772140205E-1,-1.323361993E-1,-1.711633921E0
3.022124417E0,-2.101114243E-1,-1.358014941E-1,-1.830130100E0
3.032174417E0,-4.912386835E-2,-1.717879921E-1,-1.939177036E0
3.042225417E0,1.978299916E-1,-1.923965961E-1,-2.062193632E0
3.052276417E0,5.041667819E-1,-2.038276941E-1,-2.216448784E0
3.062326417E0,7.974830270E-1,-8.892613649E-2,-2.409543753E0
3.072377417E0,9.766794443E-1,1.226212606E-1,-2.611623526E0
3.082427417E0,9.930781126E-1,3.521034420E-1,-2.803101301E0
3.092478417E0,9.022624493E-1,5.626958609E-1,-2.947116137E0
3.102529417E0,7.805903554E-1,6.855802536E-1,-2.991829157E0
3.112579417E0,6.842667460E-1,6.796230078E-1,-2.894262791E0
3.122630875E0,6.083128452E-1,5.742939711E-1,-2.648176670E0
3.132681875E0,5.096371770E-1,4.201735854E-1,-2.299926043E0
3.142731875E0,3.940482438E-1,2.528043091E-1,-1.939705372E0
3.152782875E0,2.176132798E-1,2.610110939E-1,-1.689491034E0
3.162833875E0,-1.423427612E-1,2.463293523E-1,-1.675268412E0
3.172883875E0,-4.113140404E-1,2.131655365E-1,-1.701355338E0
3.182934875E0,-4.446280599E-1,1.862481683E-1,-1.648987532E0
3.192985875E0,-2.642625272E-1,1.816345155E-1,-1.539636493E0
3.203035875E0,1.941604540E-2,2.217036337E-1,-1.477719665E0
3.213086875E0,3.404249549E-1,2.967267632E-1,-1.522438884E0
3.223136875E0,6.377916336E-1,4.420389235E-1,-1.628504872E0
3.233187875E0,8.855745792E-1,5.911147594E-1,-1.705092549E0
3.243238875E0,1.074275851E0,6.945676208E-1,-1.711689472E0
3.253288875E0,1.239682674E0,7.557894588E-1,-1.661508679E0
3.263339875E0,1.417037725E0,8.003513217E-1,-1.574411869E0
3.273390875E0,1.598022461E0,7.865878344E-1,-1.475694537E0
3.283440875E0,1.724786758E0,7.442212105E-1,-1.356011629E0
3.293491875E0,1.785287142E0,6.648001671E-1,-1.192053318E0
3.303542875E0,1.786016583E0,5.535135865E-1,-9.913699627E-1
3.313592875E0,1.785602689E0,4.446616173E-1,-8.142111897E-1
3.323643875E0,1.788577199E0,3.459646106E-1,-7.293125391E-1
3.333693875E0,1.782601833E0,3.124870658E-1,-7.121204734E-1
3.343744875E0,1.726969719E0,3.040927947E-1,-6.829735041E-1
3.353795875E0,1.634252548E0,2.758172154E-1,-6.130932570E-1
3.363845875E0,1.527361512E0,2.586613894E-1,-4.983064830E-1
