"Time (s)","X (µT)","Y (µT)","Z (µT)"
1.093558333E-2,-1.480670166E1,-5.354598236E1,1.076461792E1
2.098758333E-2,-1.498780823E1,-5.350119781E1,1.063284302E1
3.103858333E-2,-1.510416794E1,-5.355458832E1,1.058605957E1
4.109058333E-2,-1.517044067E1,-5.374523163E1,1.029731750E1
5.114258333E-2,-1.522418976E1,-5.398126984E1,9.710357666E0
6.119358333E-2,-1.557389832E1,-5.403243256E1,9.030120850E0
7.124558333E-2,-1.527711487E1,-5.376535034E1,8.264282227E0
8.129658333E-2,-1.541910934E1,-5.406826019E1,7.819122314E0
9.134858333E-2,-1.521880341E1,-5.412862396E1,7.579421997E0
1.014005833E-1,-1.517312622E1,-5.416919708E1,7.128433228E0
1.114515833E-1,-1.499659348E1,-5.436064148E1,6.893707275E0
1.215035833E-1,-1.467367935E1,-5.417746735E1,6.057846069E0
1.315555833E-1,-1.423606491E1,-5.460257721E1,4.830551147E0
1.416065833E-1,-1.359215546E1,-5.467292786E1,3.971801758E0
1.516585833E-1,-1.299968338E1,-5.491991425E1,2.491470337E0
1.617105833E-1,-1.251602554E1,-5.503824615E1,8.457794189E-1
1.717615833E-1,-1.167706299E1,-5.510753632E1,-3.204498291E-1
1.818135833E-1,-1.114002991E1,-5.512368011E1,-1.766357422E0
1.918645833E-1,-1.045969009E1,-5.524377441E1,-3.329086304E0
2.019165833E-1,-9.601799011E0,-5.523892212E1,-4.668548584E0
2.119685833E-1,-8.606933594E0,-5.512374878E1,-6.580810547E0
2.220195833E-1,-7.591037750E0,-5.507549286E1,-7.555435181E0
2.320715833E-1,-6.417392731E0,-5.502356720E1,-8.429748535E0
2.421225833E-1,-5.358013153E0,-5.467474365E1,-9.339569092E0
2.521745833E-1,-4.026580811E0,-5.462671661E1,-1.005171204E1
2.622265833E-1,-2.342372894E0,-5.475189209E1,-1.075227356E1
2.722775833E-1,-5.689086914E-1,-5.442028809E1,-1.143191528E1
2.823295833E-1,1.674633026E0,-5.426228333E1,-1.235121155E1
2.923815833E-1,4.189758301E0,-5.384046173E1,-1.268257141E1
3.024325833E-1,7.047641754E0,-5.332994843E1,-1.277523804E1
3.124845833E-1,1.012211800E1,-5.265721893E1,-1.323471069E1
3.225355833E-1,1.358958054E1,-5.170471191E1,-1.329310608E1
3.325875833E-1,1.668560982E1,-5.077054596E1,-1.382160950E1
3.426395833E-1,1.985564423E1,-4.956671906E1,-1.309390259E1
3.526905833E-1,2.287828827E1,-4.797409821E1,-1.325642395E1
3.627425833E-1,2.612073517E1,-4.592031860E1,-1.370771790E1
3.727945833E-1,2.909323120E1,-4.401185608E1,-1.399563599E1
3.828455833E-1,3.178711319E1,-4.188837433E1,-1.478517151E1
3.928975833E-1,3.363059235E1,-3.981197357E1,-1.522012329E1
4.029485833E-1,3.557127380E1,-3.759924316E1,-1.593196106E1
4.130005833E-1,3.734147644E1,-3.569807434E1,-1.642469788E1
4.230525833E-1,3.905989456E1,-3.349512482E1,-1.712562561E1
4.331035833E-1,4.032749939E1,-3.169719315E1,-1.777635193E1
4.431555833E-1,4.171527100E1,-2.917171478E1,-1.851922607E1
4.532075833E-1,4.284202957E1,-2.728153229E1,-1.898831177E1
4.632585833E-1,4.398110199E1,-2.490517426E1,-1.964753723E1
4.733105833E-1,4.512539673E1,-2.268979454E1,-2.000065613E1
4.833615833E-1,4.588890457E1,-2.034697151E1,-2.083985901E1
4.934135833E-1,4.637359619E1,-1.840746498E1,-2.182960510E1
5.034655833E-1,4.673461151E1,-1.648403168E1,-2.264662170E1
5.135165833E-1,4.701137924E1,-1.469718075E1,-2.343144226E1
5.235685833E-1,4.705669403E1,-1.311502743E1,-2.405799866E1
5.336205833E-1,4.703713989E1,-1.168742275E1,-2.440469360E1
5.436715833E-1,4.712422943E1,-1.011728191E1,-2.523373413E1
5.537235833E-1,4.730006790E1,-8.942220688E0,-2.582774353E1
5.637745833E-1,4.701957703E1,-8.004613876E0,-2.642544556E1
5.738265833E-1,4.700102997E1,-6.878138065E0,-2.664958191E1
5.838785833E-1,4.687393188E1,-5.768011093E0,-2.703422546E1
5.939295833E-1,4.693377304E1,-4.639963150E0,-2.742146301E1
6.039815833E-1,4.691778564E1,-4.009911060E0,-2.761322021E1
6.140335833E-1,4.679609299E1,-3.305893421E0,-2.831018066E1
6.240845833E-1,4.661573029E1,-2.842032909E0,-2.801710510E1
6.341365833E-1,4.657877350E1,-2.088020802E0,-2.815063477E1
6.441875833E-1,4.673234558E1,-1.449302554E0,-2.908454895E1
6.542395833E-1,4.660063171E1,-5.447148681E-1,-2.895916748E1
6.642915833E-1,4.637580872E1,4.051408768E-1,-2.946165466E1
6.743425833E-1,4.605207062E1,1.196466446E0,-2.960278320E1
6.843945833E-1,4.613609695E1,1.953261375E0,-2.982897949E1
6.944465833E-1,4.608826065E1,3.086501598E0,-2.980319214E1
7.044975833E-1,4.587125778E1,4.128287315E0,-3.001657104E1
7.145490833E-1,4.599258041E1,5.223818302E0,-3.010264587E1
7.246000833E-1,4.589396667E1,6.128093243E0,-3.017749023E1
7.346520833E-1,4.580515289E1,6.841234207E0,-3.003620911E1
7.447040833E-1,4.555137253E1,7.764994621E0,-2.988726807E1
7.547550833E-1,4.548370743E1,8.687176704E0,-2.964212036E1
7.648070833E-1,4.531790161E1,9.375274658E0,-2.957597351E1
7.748590833E-1,4.503232956E1,1.000968647E1,-2.974359131E1
7.849100833E-1,4.490090179E1,1.080681419E1,-2.971357727E1
7.949620833E-1,4.487606430E1,1.135184193E1,-2.971113586E1
8.050130833E-1,4.452297974E1,1.166252518E1,-2.987908936E1
8.150650833E-1,4.471513367E1,1.186149502E1,-2.999647522E1
8.251170833E-1,4.460121536E1,1.234673977E1,-3.017314148E1
8.351680833E-1,4.454702759E1,1.238556480E1,-3.030656433E1
8.452200833E-1,4.440509796E1,1.243152428E1,-3.008654785E1
8.552710833E-1,4.447644043E1,1.249521065E1,-3.008016968E1
8.653230833E-1,4.433482742E1,1.211993504E1,-2.984767151E1
8.753750833E-1,4.465647507E1,1.167135906E1,-2.975686646E1
8.854260833E-1,4.475683975E1,1.142530632E1,-2.950375366E1
8.954780833E-1,4.482784653E1,1.121725559E1,-2.891409302E1
9.055300833E-1,4.519453812E1,1.070948219E1,-2.880973816E1
9.155810833E-1,4.565254974E1,1.015734005E1,-2.839633179E1
9.256330833E-1,4.619097519E1,9.414203644E0,-2.783784485E1
9.356840833E-1,4.657144165E1,8.594897270E0,-2.755914307E1
9.457360833E-1,4.708436203E1,7.747078896E0,-2.686933899E1
9.557880833E-1,4.717115784E1,6.881670475E0,-2.642871094E1
9.658390833E-1,4.771852875E1,5.868082047E0,-2.549626160E1
9.758910833E-1,4.759174347E1,4.407718658E0,-2.526412964E1
9.859430833E-1,4.759294128E1,3.164369583E0,-2.539585876E1
9.959940833E-1,4.772816849E1,1.438240051E0,-2.525611877E1
1.006046083E0,4.790025711E1,-2.205634117E-2,-2.486886597E1
1.016097083E0,4.811786652E1,-1.866879582E0,-2.459255981E1
1.026149083E0,4.767972565E1,-3.677379370E0,-2.454016113E1
1.036201083E0,4.762303162E1,-5.471484184E0,-2.444386292E1
1.046252083E0,4.760637665E1,-7.290548801E0,-2.427409363E1
1.056304083E0,4.742261124E1,-9.209459305E0,-2.411054993E1
1.066355083E0,4.710510635E1,-1.099876785E1,-2.409741211E1
1.076407083E0,4.671206284E1,-1.287164783E1,-2.311654663E1
1.086459083E0,4.627433395E1,-1.458548069E1,-2.283978271E1
1.096510083E0,4.600716782E1,-1.636075211E1,-2.215138245E1
1.106562083E0,4.571990585E1,-1.836765862E1,-2.180427551E1
1.116614083E0,4.489506531E1,-2.006887817E1,-2.122140503E1
1.126665083E0,4.470685196E1,-2.181445885E1,-2.061708069E1
1.136717083E0,4.423960114E1,-2.346195412E1,-1.970494080E1
1.146768083E0,4.371924210E1,-2.475852013E1,-1.900593567E1
1.156820083E0,4.286505127E1,-2.642679024E1,-1.765089417E1
1.166872083E0,4.261649323E1,-2.764015007E1,-1.652749634E1
1.176923083E0,4.245306396E1,-2.884970284E1,-1.558354187E1
1.186975083E0,4.168186951E1,-2.997921562E1,-1.460649109E1
1.197027083E0,4.111443329E1,-3.123456001E1,-1.363908386E1
1.207078083E0,4.055042267E1,-3.233306122E1,-1.307015991E1
1.217130083E0,3.986810303E1,-3.335974884E1,-1.235559082E1
1.227181083E0,3.953984833E1,-3.418719482E1,-1.134637451E1
1.237233083E0,3.880948639E1,-3.492814636E1,-1.096638489E1
1.247285083E0,3.815448761E1,-3.567501831E1,-1.096342468E1
1.257336083E0,3.751840591E1,-3.647238922E1,-9.784057617E0
1.267388083E0,3.712124634E1,-3.700871277E1,-9.501831055E0
1.277439083E0,3.674845505E1,-3.735786438E1,-8.966583252E0
1.287491083E0,3.661381912E1,-3.774684906E1,-8.076751709E0
1.297543083E0,3.654947662E1,-3.808222961E1,-7.353439331E0
1.307594083E0,3.645907593E1,-3.857862854E1,-6.486923218E0
1.317646083E0,3.633398056E1,-3.856712341E1,-5.652389526E0
1.327698083E0,3.643712616E1,-3.861464691E1,-4.758193970E0
1.337749083E0,3.652796555E1,-3.872103119E1,-3.869003296E0
1.347801083E0,3.637284088E1,-3.852616119E1,-2.489212036E0
1.357852083E0,3.658679962E1,-3.862291718E1,-1.447814941E0
1.367904083E0,3.663068771E1,-3.845427704E1,-9.165954590E-2
1.377956083E0,3.696503448E1,-3.816188049E1,1.303512573E0
1.388007083E0,3.705400467E1,-3.783443451E1,2.731689453E0
1.398059083E0,3.743517685E1,-3.753884888E1,4.667358398E0
1.408110083E0,3.749611282E1,-3.721537781E1,6.472915649E0
1.418162083E0,3.771005249E1,-3.716799927E1,7.201690674E0
1.428214083E0,3.745682526E1,-3.699281311E1,8.566390991E0
1.438265083E0,3.714458847E1,-3.673069000E1,9.588973999E0
1.448317083E0,3.704532242E1,-3.687573242E1,1.056315613E1
1.458369083E0,3.692814636E1,-3.680900574E1,1.124392700E1
1.468420083E0,3.675068665E1,-3.631025696E1,1.174635315E1
1.478472083E0,3.676021576E1,-3.643032837E1,1.189361572E1
1.488523083E0,3.659083939E1,-3.627123260E1,1.215126038E1
1.498575083E0,3.675084305E1,-3.651081848E1,1.212336731E1
1.508627083E0,3.666431046E1,-3.639188385E1,1.225280762E1
1.518678083E0,3.675851059E1,-3.615756989E1,1.208441162E1
1.528730083E0,3.705519867E1,-3.586692047E1,1.196505737E1
1.538781083E0,3.712493515E1,-3.544680786E1,1.214369202E1
1.548833083E0,3.752541351E1,-3.493583679E1,1.219674683E1
1.558885083E0,3.778366852E1,-3.455716705E1,1.238168335E1
1.568936083E0,3.843429947E1,-3.414968109E1,1.262872314E1
1.578988083E0,3.896205139E1,-3.359392548E1,1.230519104E1
1.589040083E0,3.959200287E1,-3.308003235E1,1.187377930E1
1.599091083E0,4.002213287E1,-3.248625183E1,1.177154541E1
1.609143083E0,4.077612686E1,-3.199946785E1,1.131626892E1
1.619194083E0,4.117413330E1,-3.134477234E1,1.069372559E1
1.629246083E0,4.187577057E1,-3.061586189E1,9.839492798E0
1.639298083E0,4.274596405E1,-2.987182999E1,8.956665039E0
1.649349083E0,4.373772049E1,-2.876420784E1,7.709793091E0
1.659401083E0,4.447393799E1,-2.778389931E1,6.872940063E0
1.669453083E0,4.499052429E1,-2.689421082E1,5.542572021E0
1.679504083E0,4.580151749E1,-2.587926865E1,4.248901367E0
1.689556083E0,4.637958145E1,-2.469557762E1,2.876403809E0
1.699607083E0,4.718959808E1,-2.363832092E1,2.012069702E0
1.709659208E0,4.782375717E1,-2.232157326E1,7.270660400E-1
1.719711208E0,4.851052856E1,-2.086912155E1,-2.327575684E-1
1.729762208E0,4.906763840E1,-1.968249512E1,-1.401794434E0
1.739814208E0,4.952846909E1,-1.797104645E1,-2.372100830E0
1.749865208E0,4.989445114E1,-1.641767883E1,-3.370758057E0
1.759917208E0,5.020146561E1,-1.483065033E1,-4.423782349E0
1.769969208E0,5.049082565E1,-1.334355259E1,-5.056137085E0
1.780020208E0,5.090734100E1,-1.205037117E1,-6.036956787E0
1.790072208E0,5.114129639E1,-1.055709934E1,-6.755462646E0
1.800123208E0,5.137627411E1,-9.146494865E0,-7.449722290E0
1.810175208E0,5.159038544E1,-7.531372070E0,-8.097076416E0
1.820227208E0,5.164847565E1,-6.037337303E0,-8.674026489E0
1.830278208E0,5.168635941E1,-4.823418140E0,-9.118682861E0
1.840330208E0,5.187123108E1,-3.315568686E0,-9.891571045E0
1.850382208E0,5.143536377E1,-1.842185616E0,-1.078175354E1
1.860433208E0,5.132027817E1,-4.072992802E-1,-1.198226929E1
1.870485208E0,5.156745148E1,1.143409014E0,-1.224359131E1
1.880536208E0,5.117984009E1,2.168007851E0,-1.305618286E1
1.890588208E0,5.125801086E1,3.550726414E0,-1.356231689E1
1.900640208E0,5.051818085E1,4.793962002E0,-1.436128235E1
1.910691208E0,5.008722305E1,5.666886806E0,-1.496221924E1
1.920743208E0,5.006881714E1,6.446218014E0,-1.560041809E1
1.930794208E0,4.991605759E1,7.242259026E0,-1.644461060E1
1.940846208E0,4.941410828E1,8.078826904E0,-1.724957275E1
1.950898208E0,4.906327820E1,8.586361885E0,-1.761032104E1
1.960949208E0,4.882211304E1,8.916066170E0,-1.814437866E1
1.971001208E0,4.889496613E1,9.094753265E0,-1.817091370E1
1.981053208E0,4.883147430E1,9.333560944E0,-1.805038452E1
1.991104208E0,4.870470047E1,9.646788597E0,-1.770957947E1
2.001156208E0,4.890715790E1,9.903583527E0,-1.818646240E1
2.011207208E0,4.907477951E1,9.693116188E0,-1.731504822E1
2.021259208E0,4.917992401E1,9.579705238E0,-1.648980713E1
2.031311208E0,4.944600677E1,9.227698326E0,-1.617724609E1
2.041362208E0,4.954542542E1,8.911802292E0,-1.526965332E1
2.051414208E0,5.005103302E1,8.323973656E0,-1.465933228E1
2.061465208E0,5.031052399E1,7.504549980E0,-1.403634644E1
2.071517208E0,5.053924179E1,6.880924225E0,-1.332295227E1
2.081569208E0,5.104124832E1,5.937371731E0,-1.301817322E1
2.091620208E0,5.135987091E1,4.902132034E0,-1.193153381E1
2.101672208E0,5.146177673E1,3.920320511E0,-1.064265442E1
2.111724208E0,5.163251495E1,2.403778076E0,-9.661224365E0
2.121775208E0,5.172672653E1,8.708848953E-1,-8.164901733E0
2.131827208E0,5.194300842E1,-7.618930340E-1,-6.631423950E0
2.141878208E0,5.209263229E1,-2.477296829E0,-5.295654297E0
2.151930208E0,5.226531601E1,-4.173502922E0,-4.050704956E0
2.161982208E0,5.196700668E1,-5.908738136E0,-2.672363281E0
2.172033208E0,5.160437012E1,-7.726985455E0,-1.525787354E0
2.182085208E0,5.127789307E1,-9.480112076E0,-1.302795410E-1
2.192136208E0,5.076238632E1,-1.133557701E1,1.818572998E0
2.202188208E0,5.013779831E1,-1.309054089E1,3.200134277E0
2.212240208E0,4.942741013E1,-1.502685928E1,4.863647461E0
2.222291208E0,4.876938629E1,-1.692959404E1,6.867034912E0
2.232343208E0,4.781534576E1,-1.852231979E1,7.995269775E0
2.242394208E0,4.662049866E1,-2.044773293E1,9.448318481E0
2.252446208E0,4.556008530E1,-2.207008743E1,1.104908752E1
2.262498208E0,4.438515472E1,-2.370587158E1,1.248075867E1
2.272549208E0,4.302151489E1,-2.506836700E1,1.384629822E1
2.282601208E0,4.181368256E1,-2.668504524E1,1.505825806E1
2.292653208E0,4.054965973E1,-2.820061302E1,1.612022400E1
2.302704208E0,3.919128036E1,-2.979700089E1,1.693609619E1
2.312756208E0,3.760388947E1,-3.127381516E1,1.781457520E1
2.322807208E0,3.585892105E1,-3.261408997E1,1.857673645E1
2.332859208E0,3.423511124E1,-3.393419647E1,1.944544983E1
2.342911208E0,3.280880356E1,-3.515033722E1,2.012403870E1
2.352962208E0,3.093206406E1,-3.654396820E1,2.084190369E1
2.363014208E0,2.934517670E1,-3.750745392E1,2.114776611E1
2.373065208E0,2.794158173E1,-3.837877655E1,2.176130676E1
2.383117208E0,2.619370651E1,-3.950557709E1,2.206944275E1
2.393169208E0,2.474287605E1,-4.060416412E1,2.259526062E1
2.403220208E0,2.311093521E1,-4.110958099E1,2.258270264E1
2.413272208E0,2.168600273E1,-4.203570557E1,2.260868835E1
2.423323208E0,2.044528198E1,-4.298400116E1,2.259629822E1
2.433375208E0,1.883754158E1,-4.349887848E1,2.251377869E1
2.443427208E0,1.771069336E1,-4.400399017E1,2.269477844E1
2.453478208E0,1.660411835E1,-4.436921692E1,2.287168884E1
2.463530208E0,1.576867867E1,-4.488947296E1,2.286224365E1
2.473582208E0,1.446131325E1,-4.513218689E1,2.287496948E1
2.483633208E0,1.347396660E1,-4.550312042E1,2.290528870E1
2.493685208E0,1.273235703E1,-4.583657074E1,2.231526184E1
2.503736208E0,1.202231789E1,-4.620336914E1,2.241375732E1
2.513788208E0,1.139253426E1,-4.660281372E1,2.152322388E1
2.523840208E0,1.067716408E1,-4.672779083E1,2.143391418E1
2.533891208E0,1.014444542E1,-4.727999878E1,2.098033142E1
2.543943208E0,9.525875092E0,-4.746125031E1,2.064038086E1
2.553994208E0,8.711097717E0,-4.807065582E1,2.010121155E1
2.564046208E0,8.072212219E0,-4.802975464E1,1.994584656E1
2.574098208E0,7.761516571E0,-4.836945343E1,1.984056091E1
2.584149208E0,7.236984253E0,-4.829840851E1,1.962071228E1
2.594201208E0,7.018630981E0,-4.829515839E1,1.936738586E1
2.604252208E0,6.871397018E0,-4.861618805E1,1.932315063E1
2.614304208E0,6.740036011E0,-4.879470825E1,1.923834229E1
2.624356208E0,6.510374069E0,-4.899845123E1,1.930488586E1
2.634407208E0,6.428352356E0,-4.905797577E1,1.922811890E1
2.644459208E0,6.133407593E0,-4.898928070E1,1.917504883E1
2.654510208E0,5.769632339E0,-4.886780548E1,1.876998901E1
2.664562208E0,5.534778595E0,-4.879093170E1,1.905331421E1
2.674614208E0,5.639318466E0,-4.881916809E1,1.977148438E1
2.684665208E0,5.505952835E0,-4.859727478E1,2.026083374E1
2.694717208E0,5.768098831E0,-4.896284485E1,2.128778076E1
2.704769208E0,5.521209717E0,-4.887448120E1,2.154869080E1
2.714820625E0,5.743110657E0,-4.882980347E1,2.186242676E1
2.724872625E0,5.562042236E0,-4.896464539E1,2.234368896E1
2.734923625E0,5.715641022E0,-4.889807129E1,2.292822266E1
2.744975625E0,5.778394699E0,-4.901412201E1,2.372244263E1
2.755027625E0,5.609024048E0,-4.935177612E1,2.440359497E1
2.765078625E0,5.702955246E0,-4.957240295E1,2.487194824E1
2.775130625E0,5.857505798E0,-4.970999908E1,2.547151184E1
2.785181625E0,6.009025574E0,-4.946164703E1,2.644964600E1
2.795233625E0,5.883737564E0,-4.947210693E1,2.760054016E1
2.805285625E0,5.726562500E0,-4.912844086E1,2.867797852E1
2.815336625E0,5.521625519E0,-4.911404419E1,2.953541565E1
2.825388625E0,5.349903107E0,-4.877890778E1,3.065687561E1
2.835439625E0,5.012126923E0,-4.838571167E1,3.186640930E1
2.845491625E0,4.493772507E0,-4.811611176E1,3.289776611E1
2.855543625E0,4.191631317E0,-4.774378967E1,3.386849976E1
2.865594625E0,3.302612305E0,-4.725514984E1,3.482038879E1
2.875646625E0,2.599033356E0,-4.656437683E1,3.577201843E1
2.885697625E0,9.247589111E-1,-4.466444397E1,3.619316101E1
2.895749625E0,-4.098205566E-1,-4.204656219E1,3.701887512E1
2.905801625E0,-2.733211517E0,-3.936206818E1,3.620761108E1
2.915852625E0,-4.867771149E0,-3.737529755E1,3.485824585E1
2.925904625E0,-6.827659607E0,-3.637292480E1,3.360836792E1
2.935955625E0,-8.172374725E0,-3.589839172E1,3.245529175E1
2.946007625E0,-8.958961487E0,-3.566324615E1,3.133106995E1
2.956059625E0,-8.758911133E0,-3.547094727E1,3.116165161E1
2.966110625E0,-8.040584564E0,-3.497090912E1,3.136164856E1
2.976162625E0,-7.013500214E0,-3.442037201E1,3.240797424E1
2.986214625E0,-6.196418762E0,-3.344392395E1,3.261785889E1
2.996265625E0,-5.527610779E0,-3.281871033E1,3.244319153E1
3.006317625E0,-5.152553558E0,-3.241336060E1,3.203521729E1
3.016368625E0,-4.666675568E0,-3.268048096E1,3.091055298E1
3.026420625E0,-4.711841583E0,-3.289784241E1,2.920558167E1
3.036472625E0,-4.788631439E0,-3.378525543E1,2.716670227E1
3.046523625E0,-4.706928253E0,-3.485754395E1,2.514399719E1
3.056575625E0,-4.206886292E0,-3.537943268E1,2.367395020E1
3.066626625E0,-3.431549072E0,-3.542147827E1,2.235543823E1
3.076678625E0,-2.762607574E0,-3.482053375E1,2.077894592E1
3.086730625E0,-1.884643555E0,-3.409764099E1,1.970643616E1
3.096781625E0,-1.152072906E0,-3.251588440E1,1.907495117E1
3.106833625E0,-9.095611572E-1,-3.075756264E1,1.928936768E1
3.116884625E0,-6.599998474E-1,-2.813081169E1,2.031033325E1
3.126936625E0,-1.052268982E0,-2.522136688E1,2.213406372E1
3.136988625E0,-1.193222046E0,-2.263639259E1,2.425489807E1
3.147039625E0,-1.612037659E0,-2.059238052E1,2.615307617E1
3.157091625E0,-1.333850861E0,-1.873837662E1,2.825939941E1
3.167142625E0,-9.556846619E-1,-1.728863525E1,2.965904236E1
3.177194625E0,-8.394660950E-1,-1.538409328E1,3.017408752E1
3.187246625E0,-5.433654785E-1,-1.350188637E1,2.933038330E1
3.197297625E0,-5.351791382E-1,-1.075810528E1,2.761770630E1
3.207349625E0,-1.973793030E0,-8.303996086E0,2.517002869E1
3.217400625E0,-5.500480652E0,-6.218492508E0,2.206651306E1
3.227452625E0,-1.921987915E1,-5.319017410E0,1.756401062E1
3.237504625E0,-1.749814224E1,2.758726120E0,1.333155823E1
3.247555625E0,-1.985163879E1,3.337871313E0,1.179824829E1
3.257607625E0,-2.071867371E1,3.409817219E0,1.145880127E1
3.267658625E0,-2.077337265E1,3.521638870E0,1.166503906E1
3.277710625E0,-2.080598068E1,3.752015591E0,1.199037170E1
3.287762625E0,-2.099036407E1,3.543416977E0,1.243338013E1
3.297813625E0,-2.075713730E1,3.731523991E0,1.181793213E1
3.307865625E0,-2.065890884E1,3.735873699E0,1.209236145E1
3.317916625E0,-2.033181000E1,3.635702133E0,1.236807251E1
3.327968625E0,-2.003469467E1,3.822706699E0,1.230287170E1
3.338020625E0,-2.010857773E1,4.022346020E0,1.231028748E1
3.348071625E0,-1.950952148E1,4.117109299E0,1.247424316E1
3.358123625E0,-1.937508011E1,4.364353657E0,1.291642761E1
3.368175625E0,-1.922906494E1,4.543772697E0,1.278662109E1
3.378226625E0,-1.897229767E1,4.543117046E0,1.291156006E1
3.388278625E0,-1.879459000E1,4.743522644E0,1.308872986E1
3.398329625E0,-1.865879059E1,4.946976185E0,1.310498047E1
3.408381625E0,-1.822441483E1,4.929309845E0,1.350878906E1
3.418432625E0,-1.778931046E1,5.085336208E0,1.421438599E1
3.428484625E0,-1.780061722E1,5.326023102E0,1.475695801E1
3.438536625E0,-1.746383286E1,5.489701748E0,1.460383606E1
3.448587625E0,-1.712393188E1,5.612141132E0,1.450395203E1
3.458639625E0,-1.703164673E1,5.575314522E0,1.473094177E1
3.468691625E0,-1.682013702E1,5.749040604E0,1.510780334E1
