"Time (s)","X (rad/s)","Y (rad/s)","Z (rad/s)"
1.839779167E-2,-2.291607410E-1,1.870223582E-1,-5.933445692E-2
2.844879167E-2,-2.327552140E-1,2.158896923E-1,-2.661193162E-2
3.849979167E-2,-2.123490125E-1,2.166271210E-1,3.588979691E-2
4.855079167E-2,-2.130547464E-1,2.104925215E-1,1.244143248E-1
5.860079167E-2,-2.560107410E-1,1.559145004E-1,2.346886396E-1
6.865179167E-2,-3.114657402E-1,9.656569362E-2,3.514157832E-1
7.870279167E-2,-3.530986607E-1,8.833838999E-2,4.602964520E-1
8.875379167E-2,-3.812355101E-1,1.071200669E-1,5.581551194E-1
9.880379167E-2,-3.775763214E-1,1.060747802E-1,6.373625994E-1
1.088547917E-1,-3.565871418E-1,1.172960028E-1,6.841447949E-1
1.189057917E-1,-3.190490901E-1,1.193072274E-1,6.449688673E-1
1.289567917E-1,-2.856005728E-1,2.225601077E-1,5.104374290E-1
1.390067917E-1,-2.476651818E-1,4.130477607E-1,3.050126135E-1
1.490577917E-1,-2.444454283E-1,6.321039796E-1,5.135796592E-2
1.591087917E-1,-2.480516136E-1,7.815296650E-1,-2.169523239E-1
1.691597917E-1,-2.665270269E-1,8.885714412E-1,-4.669493735E-1
1.792097917E-1,-2.988474071E-1,9.507541060E-1,-7.269449830E-1
1.892607917E-1,-3.561682403E-1,9.445492029E-1,-9.780789018E-1
1.993117917E-1,-4.536447227E-1,8.633643389E-1,-1.138454437E0
2.093617917E-1,-6.731474996E-1,5.727128386E-1,-1.117898822E0
2.194127917E-1,-9.322957397E-1,1.800256968E-1,-8.844821453E-1
2.294637917E-1,-1.127913117E0,-1.704393774E-1,-5.372101665E-1
2.395147917E-1,-1.244535565E0,-3.566302955E-1,-2.059742361E-1
2.495657917E-1,-1.314879298E0,-3.528752327E-1,-3.761211783E-2
2.596157917E-1,-1.388881564E0,-1.764985919E-1,-1.534540355E-1
2.696667917E-1,-1.472666502E0,1.357445270E-1,-5.435069799E-1
2.797177917E-1,-1.536787391E0,4.985384345E-1,-1.133209109E0
2.897687917E-1,-1.554855585E0,8.418436050E-1,-1.797366619E0
2.998187917E-1,-1.582348824E0,1.062036633E0,-2.470402718E0
3.098697917E-1,-1.627031326E0,1.174059868E0,-3.074013710E0
3.199207917E-1,-1.705884814E0,1.143641233E0,-3.513000727E0
3.299707917E-1,-1.790505767E0,1.049256444E0,-3.714401960E0
3.400217917E-1,-1.907423258E0,1.009788632E0,-3.716681242E0
3.500727917E-1,-2.068261623E0,6.890591383E-1,-3.519826174E0
3.601237917E-1,-2.272063494E0,6.248292923E-1,-3.220495939E0
3.701737917E-1,-2.489152670E0,4.070782959E-1,-2.999593973E0
3.802247917E-1,-2.646111727E0,1.633564383E-1,-2.936752319E0
3.902757917E-1,-2.727231264E0,-6.136028469E-2,-2.999087811E0
4.003267917E-1,-2.724933624E0,-2.275332808E-1,-3.059687853E0
4.103770000E-1,-2.668050051E0,-3.214083910E-1,-3.061872959E0
4.204280000E-1,-2.610643387E0,-3.920412660E-1,-2.989482880E0
4.304790000E-1,-2.603379488E0,-4.013950825E-1,-2.873696327E0
4.405300000E-1,-2.602980137E0,-4.912410975E-1,-2.788910627E0
4.505800000E-1,-2.615261078E0,-5.559100509E-1,-2.729439020E0
4.606310000E-1,-2.615430593E0,-6.818746328E-1,-2.706769705E0
4.706820000E-1,-2.683048487E0,-8.039494157E-1,-2.695079803E0
4.807330000E-1,-2.749964476E0,-8.845624924E-1,-2.743589163E0
4.907830000E-1,-2.791606665E0,-8.922185898E-1,-2.852254868E0
5.008340000E-1,-2.796591520E0,-8.474407196E-1,-2.975359201E0
5.108850000E-1,-2.773465157E0,-7.610453963E-1,-3.104132891E0
5.209360000E-1,-2.760188341E0,-6.465161443E-1,-3.213767290E0
5.309860000E-1,-2.773953915E0,-5.711953044E-1,-3.318323374E0
5.410370000E-1,-2.791037321E0,-5.116899014E-1,-3.437598467E0
5.510880000E-1,-2.817341089E0,-5.057869554E-1,-3.522238016E0
5.611390000E-1,-2.855130911E0,-5.553689003E-1,-3.527964115E0
5.711890000E-1,-2.887326002E0,-6.349207163E-1,-3.494765282E0
5.812400000E-1,-2.917426586E0,-7.574658394E-1,-3.432434559E0
5.912910000E-1,-2.968061924E0,-8.673529029E-1,-3.325905085E0
6.013420000E-1,-3.022714138E0,-9.587975740E-1,-3.165240765E0
6.113920000E-1,-3.034996986E0,-1.051530838E0,-2.956266403E0
6.214430000E-1,-2.998919249E0,-1.112007737E0,-2.709669828E0
6.314940000E-1,-2.907743454E0,-1.138449430E0,-2.477242231E0
6.415450000E-1,-2.758535862E0,-1.092913151E0,-2.290529490E0
6.515950000E-1,-2.552023172E0,-9.733541608E-1,-2.157618284E0
6.616460000E-1,-2.271721363E0,-8.005043864E-1,-2.107851267E0
6.716970000E-1,-1.933647990E0,-5.593383312E-1,-2.134653330E0
6.817480000E-1,-1.545665026E0,-2.687126696E-1,-2.240806103E0
6.917980000E-1,-1.145275354E0,8.562010527E-2,-2.396061897E0
7.018490000E-1,-7.714607716E-1,4.395976067E-1,-2.583556175E0
7.119000000E-1,-4.373943806E-1,7.494644523E-1,-2.767824173E0
7.219510000E-1,-1.534039378E-1,1.054534316E0,-2.909001589E0
7.320010000E-1,8.682091534E-2,1.334071636E0,-2.991255999E0
7.420520000E-1,2.982348800E-1,1.533575177E0,-3.010653734E0
7.521030000E-1,4.879358411E-1,1.664859176E0,-2.972550154E0
7.621540000E-1,6.316320300E-1,1.728352070E0,-2.880739927E0
7.722040000E-1,7.461900115E-1,1.728187203E0,-2.762010574E0
7.822550000E-1,8.525180817E-1,1.698338747E0,-2.621773958E0
7.923060000E-1,9.246460795E-1,1.635334492E0,-2.461497545E0
8.023570000E-1,9.433252215E-1,1.588328362E0,-2.268610239E0
8.124070000E-1,9.187980294E-1,1.451866150E0,-2.079334259E0
8.224580000E-1,8.252608776E-1,1.301759481E0,-1.886344671E0
8.325090000E-1,6.816472411E-1,1.166054606E0,-1.666348696E0
8.425600000E-1,4.960342646E-1,1.016789317E0,-1.437229156E0
8.526100000E-1,2.683832645E-1,8.311265111E-1,-1.191867948E0
8.626610000E-1,-9.042759426E-3,6.254096031E-1,-9.192033410E-1
8.727120000E-1,-2.837403715E-1,3.839974701E-1,-6.015649438E-1
8.827630000E-1,-5.285426378E-1,1.732072085E-1,-2.490982711E-1
8.928130000E-1,-6.823875904E-1,-3.728397936E-2,6.528709829E-2
9.028640000E-1,-7.597375512E-1,-1.950805336E-1,3.177896440E-1
9.129150000E-1,-7.911822796E-1,-3.244537115E-1,4.954379499E-1
9.229660000E-1,-8.056980968E-1,-4.253800511E-1,6.048172116E-1
9.330160000E-1,-8.064778447E-1,-4.952158630E-1,6.713173985E-1
9.430670000E-1,-7.912642956E-1,-5.361685753E-1,7.267739773E-1
9.531180000E-1,-7.443876266E-1,-5.544162989E-1,7.683951855E-1
9.631690000E-1,-6.730135679E-1,-5.229236484E-1,8.053729534E-1
9.732190000E-1,-5.878059864E-1,-4.476589859E-1,8.509837985E-1
9.832700000E-1,-4.951396883E-1,-3.840179741E-1,8.849859834E-1
9.933210000E-1,-4.069999754E-1,-3.253802061E-1,9.035303593E-1
1.003372000E0,-3.138516545E-1,-2.809096873E-1,9.295438528E-1
1.013422000E0,-2.164209783E-1,-2.460068315E-1,9.951393604E-1
1.023473000E0,-1.142946109E-1,-2.581908107E-1,1.082775474E0
1.033524000E0,-3.207507543E-3,-2.460928559E-1,1.185714722E0
1.043575000E0,9.509669244E-2,-2.229478508E-1,1.281317592E0
1.053625000E0,1.856401712E-1,-1.800238192E-1,1.358207107E0
1.063676000E0,2.730208933E-1,-1.141326874E-1,1.388240099E0
1.073727000E0,3.350701332E-1,2.654381562E-3,1.382324696E0
1.083778000E0,3.897703886E-1,1.390886605E-1,1.355854750E0
1.093828000E0,4.191266894E-1,2.841374576E-1,1.326858759E0
1.103879000E0,4.411885738E-1,4.121524096E-1,1.313014269E0
1.113930000E0,4.664521217E-1,4.780781567E-1,1.322883129E0
1.123981000E0,4.740234911E-1,4.642100334E-1,1.347625494E0
1.134031000E0,4.487149417E-1,3.869123161E-1,1.398958206E0
1.144082000E0,3.839945495E-1,2.729021013E-1,1.486632943E0
1.154133000E0,2.949080765E-1,1.318334043E-1,1.621077061E0
1.164184000E0,2.117026597E-1,-2.658624668E-3,1.802319765E0
1.174234000E0,1.643868089E-1,-1.208302751E-1,2.009031296E0
1.184285000E0,1.431813985E-1,-2.213968337E-1,2.190370560E0
1.194336000E0,1.389496326E-1,-2.885788083E-1,2.341570377E0
1.204387000E0,1.944421828E-1,-3.412364125E-1,2.446336031E0
1.214437000E0,2.952417731E-1,-3.802256286E-1,2.483764410E0
1.224488000E0,4.029935300E-1,-3.965654373E-1,2.485646963E0
1.234539000E0,4.854721725E-1,-3.946642280E-1,2.448862076E0
1.244590000E0,5.443498492E-1,-3.671670854E-1,2.415749550E0
1.254640000E0,5.643645525E-1,-3.289462030E-1,2.390511513E0
1.264691000E0,5.501795411E-1,-2.772747278E-1,2.403754711E0
1.274742000E0,5.156079531E-1,-2.170710564E-1,2.460312843E0
1.284793000E0,4.898866117E-1,-2.004212439E-1,2.528226614E0
1.294843000E0,4.739918113E-1,-1.755547673E-1,2.600253582E0
1.304894000E0,4.891124368E-1,-1.787495017E-1,2.639361858E0
1.314945000E0,5.424731374E-1,-1.835895330E-1,2.645059347E0
1.324996000E0,6.369719505E-1,-1.904090792E-1,2.604534388E0
1.335046000E0,7.524255514E-1,-1.950722784E-1,2.548678637E0
1.345097000E0,8.741596937E-1,-1.943028867E-1,2.470781088E0
1.355148000E0,9.852340221E-1,-1.827540994E-1,2.370343208E0
1.365198000E0,1.078223705E0,-1.258415431E-1,2.251629591E0
1.375249000E0,1.146199822E0,-8.884730935E-2,2.128125429E0
1.385300000E0,1.175305009E0,-5.708324909E-2,2.018561602E0
1.395351000E0,1.172004223E0,-2.410026826E-2,1.916917801E0
1.405401500E0,1.159583211E0,1.486683916E-2,1.815064907E0
1.415452500E0,1.132393479E0,1.429292839E-2,1.693914294E0
1.425503500E0,1.081353188E0,1.627671532E-2,1.571521759E0
1.435554500E0,1.044083595E0,2.707130648E-2,1.459907293E0
1.445604500E0,1.031791210E0,4.673848674E-2,1.357962847E0
1.455655500E0,1.027415872E0,4.258901626E-2,1.247887254E0
1.465706500E0,1.014717102E0,2.570403926E-2,1.141105175E0
1.475757500E0,9.999605417E-1,-7.031801157E-3,1.053775787E0
1.485807500E0,9.845424294E-1,-1.922508515E-2,9.710692167E-1
1.495858500E0,9.618144631E-1,-1.910417713E-2,8.872318268E-1
1.505909500E0,9.128759503E-1,-9.552668780E-4,7.826870680E-1
1.515960500E0,8.403783441E-1,1.395444013E-2,6.633430719E-1
1.526010500E0,7.360495329E-1,4.989113659E-2,5.365928411E-1
1.536061500E0,6.245805025E-1,7.594963163E-2,3.996485770E-1
1.546112500E0,4.973325431E-1,8.118434250E-2,2.422048748E-1
1.556163500E0,3.468596935E-1,7.775764912E-2,8.765471727E-2
1.566213500E0,2.043821663E-1,5.578577891E-2,-4.367267340E-2
1.576264500E0,8.594340831E-2,2.234099992E-2,-1.447955668E-1
1.586315500E0,-2.135934867E-2,-2.459375188E-2,-2.570171654E-1
1.596366500E0,-1.206521094E-1,-8.898419142E-2,-4.036790431E-1
1.606416500E0,-2.254930437E-1,-1.764828861E-1,-5.929240584E-1
1.616467500E0,-3.365809321E-1,-2.558269799E-1,-8.131549358E-1
1.626518500E0,-4.222588241E-1,-2.995057404E-1,-1.031144500E0
1.636569500E0,-4.900059104E-1,-3.297563195E-1,-1.235949636E0
1.646619500E0,-5.589386225E-1,-3.458301127E-1,-1.426325679E0
1.656670500E0,-6.189178228E-1,-3.563876748E-1,-1.609186888E0
1.666721500E0,-6.539170742E-1,-3.606713712E-1,-1.789719820E0
1.676772500E0,-6.683357358E-1,-3.637102842E-1,-1.977822661E0
1.686822500E0,-6.621859670E-1,-3.546382487E-1,-2.182037354E0
1.696873500E0,-6.334986091E-1,-3.421964943E-1,-2.421289206E0
1.706924500E0,-5.901753902E-1,-3.041071594E-1,-2.696418762E0
1.716975500E0,-5.604401231E-1,-2.189861387E-1,-2.988205671E0
1.727025500E0,-5.641802549E-1,-1.166648269E-1,-3.266227245E0
1.737076500E0,-6.009218097E-1,3.589702398E-2,-3.499992132E0
1.747127500E0,-6.237652898E-1,2.141357362E-1,-3.672041655E0
1.757178500E0,-6.240792871E-1,3.814125955E-1,-3.792370796E0
1.767228500E0,-6.038185358E-1,5.211276412E-1,-3.869255543E0
1.777279500E0,-5.706927776E-1,5.917789340E-1,-3.906112194E0
1.787330500E0,-5.755777955E-1,5.714797974E-1,-3.888434887E0
1.797381500E0,-6.449206471E-1,4.572698176E-1,-3.799285412E0
1.807431500E0,-7.852277160E-1,2.506836355E-1,-3.613515854E0
1.817482500E0,-9.864572287E-1,-1.924985275E-2,-3.321360111E0
1.827533500E0,-1.223207355E0,-3.164604902E-1,-2.960063219E0
1.837584500E0,-1.437697887E0,-6.122287512E-1,-2.562098026E0
1.847634500E0,-1.597145796E0,-8.696983457E-1,-2.166462898E0
1.857685500E0,-1.677527189E0,-1.050099850E0,-1.815833211E0
1.867736500E0,-1.689253688E0,-1.148419261E0,-1.555738807E0
1.877787500E0,-1.628146887E0,-1.147538543E0,-1.390678763E0
1.887837500E0,-1.506104827E0,-1.055479407E0,-1.319651961E0
1.897888500E0,-1.341461658E0,-8.995110989E-1,-1.337208629E0
1.907939500E0,-1.150304437E0,-6.978813410E-1,-1.409363985E0
1.917990500E0,-9.390242100E-1,-4.620603025E-1,-1.513366818E0
1.928040500E0,-7.340193987E-1,-2.231662273E-1,-1.619109273E0
1.938091500E0,-5.216189623E-1,7.849410176E-3,-1.696407199E0
1.948142500E0,-2.999497056E-1,1.864268780E-1,-1.724248171E0
1.958193500E0,-7.671608031E-2,3.298341036E-1,-1.706846595E0
1.968243500E0,1.367703676E-1,4.273646474E-1,-1.652997494E0
1.978294500E0,3.420071304E-1,4.946845770E-1,-1.574480057E0
1.988345500E0,5.166833401E-1,5.475741625E-1,-1.479375362E0
1.998396500E0,6.552883387E-1,5.874161124E-1,-1.386028647E0
2.008446500E0,7.441436648E-1,5.992323160E-1,-1.297505379E0
2.018497500E0,7.750669718E-1,5.811044574E-1,-1.215725064E0
2.028548500E0,7.535693645E-1,5.598551035E-1,-1.107733369E0
2.038599500E0,7.144856453E-1,5.183827281E-1,-9.805631042E-1
2.048649500E0,6.580335498E-1,4.758890569E-1,-8.246116042E-1
2.058700500E0,5.951858759E-1,4.460847974E-1,-6.356435418E-1
2.068751500E0,5.273069739E-1,4.179538488E-1,-4.225278497E-1
2.078802500E0,4.706247747E-1,3.739919662E-1,-2.097229064E-1
2.088852500E0,4.146858752E-1,3.277533650E-1,1.637814566E-2
2.098903500E0,3.632160127E-1,2.926949859E-1,2.625506222E-1
2.108954500E0,3.040767908E-1,2.613154948E-1,5.252363682E-1
2.119005500E0,2.564213872E-1,2.539217472E-1,7.682058811E-1
2.129055500E0,2.264118344E-1,2.723093033E-1,9.735771418E-1
2.139106500E0,2.080743760E-1,3.046645820E-1,1.140893102E0
2.149157500E0,1.792781502E-1,3.503311276E-1,1.291249394E0
2.159208500E0,1.637204885E-1,3.952386677E-1,1.435414553E0
2.169258500E0,1.454165876E-1,3.816165924E-1,1.574954033E0
2.179309500E0,1.265600771E-1,3.388435841E-1,1.692295074E0
2.189360500E0,1.266311854E-1,2.825827003E-1,1.773755074E0
2.199411500E0,1.535863727E-1,2.310140431E-1,1.847601056E0
2.209461500E0,2.096600235E-1,2.068703622E-1,1.945618153E0
2.219512500E0,2.793272436E-1,2.325879782E-1,2.069308996E0
2.229563500E0,3.717932701E-1,3.070971072E-1,2.175652981E0
2.239614500E0,4.735699594E-1,4.824033976E-1,2.248372555E0
2.249664500E0,6.015231609E-1,6.891883016E-1,2.263254642E0
2.259715500E0,7.091545463E-1,9.106333256E-1,2.252064705E0
2.269766500E0,7.638073564E-1,1.127648711E0,2.236975908E0
2.279817500E0,7.760052085E-1,1.304205060E0,2.258736610E0
2.289867500E0,7.716597319E-1,1.475949168E0,2.337351799E0
2.299918500E0,8.055175543E-1,1.618686557E0,2.452316046E0
2.309969500E0,8.649353385E-1,1.732773185E0,2.587012768E0
2.320020500E0,9.460922480E-1,1.890818238E0,2.780887365E0
2.330070500E0,1.031401038E0,2.002834082E0,2.990670443E0
2.340121500E0,1.082126260E0,2.124445677E0,3.162603617E0
2.350172500E0,1.109602928E0,2.270526409E0,3.251386404E0
2.360223500E0,1.093915820E0,2.432856560E0,3.244081020E0
2.370273500E0,1.005910397E0,2.570759058E0,3.145955563E0
2.380324500E0,8.349617124E-1,2.713880301E0,3.002390385E0
2.390375500E0,6.116505861E-1,2.833573818E0,2.901814461E0
2.400426500E0,3.952216208E-1,2.903997421E0,2.895350456E0
2.410475750E0,2.104208916E-1,2.909462214E0,2.982187510E0
2.420526750E0,5.859487131E-2,2.903948307E0,3.125425100E0
2.430577750E0,-3.910638765E-2,2.896238327E0,3.265493393E0
2.440628750E0,-8.301365376E-2,2.909332275E0,3.388629198E0
2.450678750E0,-5.832003057E-2,2.986310720E0,3.456267834E0
2.460729750E0,1.700162329E-2,3.092975378E0,3.487779856E0
2.470780750E0,9.787250310E-2,3.233200312E0,3.528236389E0
2.480831750E0,1.777540147E-1,3.393518925E0,3.550605774E0
2.490881750E0,2.512308955E-1,3.527982235E0,3.510776758E0
2.500932750E0,2.869862318E-1,3.626383066E0,3.423050642E0
2.510983750E0,2.574427128E-1,3.673023939E0,3.315000772E0
2.521034750E0,2.227081805E-1,3.697380781E0,3.152857065E0
2.531084750E0,2.159642577E-1,3.768625021E0,2.988124132E0
2.541135750E0,2.351217121E-1,3.826218843E0,2.844784737E0
2.551186750E0,2.777349353E-1,3.890037775E0,2.651155949E0
2.561237750E0,3.352057040E-1,3.959165096E0,2.412528515E0
2.571287750E0,3.746036887E-1,3.985166550E0,2.187340260E0
2.581338750E0,3.710949719E-1,3.982299566E0,1.949608564E0
2.591389750E0,3.423674703E-1,3.988563061E0,1.672003865E0
2.601439750E0,3.334408104E-1,4.002039433E0,1.348770738E0
2.611490750E0,3.407378793E-1,4.012329102E0,1.026619554E0
2.621541750E0,3.520589769E-1,3.975509405E0,7.613876462E-1
2.631592750E0,3.443384767E-1,3.924983263E0,6.006999612E-1
2.641642750E0,3.311574161E-1,3.862177610E0,5.219913125E-1
2.651693750E0,3.023750484E-1,3.766578674E0,4.891289175E-1
2.661744750E0,2.358567417E-1,3.622760773E0,5.146156549E-1
2.671795750E0,1.583313197E-1,3.485915899E0,5.047960281E-1
2.681846750E0,8.433219045E-2,3.337422609E0,4.290708899E-1
2.691896750E0,-2.507312596E-2,3.193421602E0,3.817651868E-1
2.701947750E0,-1.663085520E-1,2.976244688E0,3.948599398E-1
2.711998750E0,-3.062845469E-1,2.740876436E0,4.443830252E-1
2.722049750E0,-3.930567503E-1,2.548768759E0,5.394110084E-1
2.732099750E0,-3.962056637E-1,2.375034809E0,6.568641663E-1
2.742150750E0,-3.714073598E-1,2.175775051E0,7.195301652E-1
2.752201750E0,-3.792040348E-1,2.025225401E0,7.277796268E-1
2.762251750E0,-3.453400731E-1,1.916177869E0,6.732755899E-1
2.772302750E0,-2.689587474E-1,1.863293171E0,5.036191940E-1
2.782353750E0,-1.866124868E-1,1.809548974E0,3.007592559E-1
2.792404750E0,-8.531196415E-2,1.703955412E0,1.504717618E-1
2.802454750E0,6.478941999E-3,1.588503957E0,1.300152298E-2
2.812505750E0,8.515883982E-2,1.506674051E0,-1.703310162E-1
2.822556750E0,1.800368875E-1,1.485247254E0,-4.145668447E-1
2.832607750E0,3.055330217E-1,1.449031234E0,-7.022933960E-1
2.842657750E0,4.311844110E-1,1.414707065E0,-9.475476742E-1
2.852708750E0,5.735884309E-1,1.387109518E0,-1.125858307E0
2.862759750E0,6.945763826E-1,1.368321538E0,-1.232714415E0
2.872810750E0,7.289593816E-1,1.417729020E0,-1.249770403E0
2.882860750E0,6.795569658E-1,1.453929067E0,-1.185845137E0
2.892911750E0,5.737415552E-1,1.474994183E0,-1.129760861E0
2.902962750E0,4.566463828E-1,1.503783941E0,-1.111170173E0
2.913013750E0,4.102908671E-1,1.563737035E0,-1.116318822E0
2.923063750E0,4.221459329E-1,1.573289037E0,-1.152422190E0
2.933114750E0,4.433185756E-1,1.512292266E0,-1.197965980E0
2.943165750E0,4.317037463E-1,1.391444921E0,-1.137283802E0
2.953216750E0,3.992850780E-1,1.219589233E0,-9.715339541E-1
2.963266750E0,3.505114019E-1,1.020507336E0,-7.979533672E-1
2.973317750E0,2.908984125E-1,8.504579067E-1,-6.592468619E-1
2.983368750E0,2.336170226E-1,7.058615685E-1,-5.622934103E-1
2.993419750E0,1.770024747E-1,5.870829821E-1,-4.993054569E-1
3.003469750E0,1.372713149E-1,5.052725077E-1,-4.461871088E-1
3.013520750E0,1.210476011E-1,4.582117796E-1,-3.576220870E-1
3.023571750E0,1.099291667E-1,4.381209016E-1,-2.471789271E-1
3.033622750E0,8.037286997E-2,4.045970142E-1,-1.518835723E-1
3.043672750E0,3.816150129E-2,3.771403730E-1,-8.520014584E-2
3.053723750E0,2.649582457E-3,3.557660878E-1,-2.934753150E-2
3.063774750E0,-2.986362018E-2,3.293803036E-1,1.133837830E-2
3.073825750E0,-7.616507262E-2,3.157467842E-1,3.387085348E-2
3.083875750E0,-1.067048684E-1,3.059463501E-1,4.152930528E-2
3.093926750E0,-1.162877232E-1,2.965003848E-1,4.686281830E-2
3.103977750E0,-1.044800654E-1,3.113664091E-1,5.704141781E-2
3.114028750E0,-6.192222238E-2,3.277360499E-1,6.322074682E-2
3.124078750E0,-1.456722151E-2,3.468858004E-1,5.772478506E-2
3.134129750E0,1.225693617E-2,3.609361053E-1,4.634083807E-2
3.144180750E0,1.742586493E-2,3.453275859E-1,6.300450116E-2
3.154231750E0,-1.482045627E-3,2.920553088E-1,1.203058660E-1
3.164281750E0,-2.997627109E-2,2.093305886E-1,1.899611205E-1
3.174332750E0,-3.627331555E-2,1.416088045E-1,2.382317036E-1
3.184383750E0,-1.704822294E-2,8.585259318E-2,2.392940521E-1
3.194434750E0,-1.188302133E-2,4.257569835E-2,1.903541982E-1
3.204484750E0,-2.258040756E-2,2.405021712E-2,1.375205517E-1
3.214535750E0,-5.063734204E-2,8.605215698E-3,9.825383127E-2
3.224586750E0,-7.459966838E-2,5.831533112E-3,1.018855870E-1
3.234637750E0,-9.870899469E-2,-3.892467124E-3,1.117251664E-1
3.244687750E0,-1.476919800E-1,-7.633675821E-3,1.271422058E-1
3.254738750E0,-1.958595216E-1,1.889833249E-2,1.348086447E-1
3.264789750E0,-2.539289296E-1,3.720596805E-2,1.181753427E-1
3.274840750E0,-3.324522376E-1,6.884910911E-2,1.111781523E-1
3.284890750E0,-3.855165243E-1,8.524566144E-2,1.055258587E-1
3.294941750E0,-4.084966779E-1,8.065490425E-2,1.256108880E-1
3.304992750E0,-3.949401379E-1,6.358164549E-2,1.811686903E-1
3.315043750E0,-3.290519118E-1,6.497341394E-2,2.382974923E-1
3.325093750E0,-2.432456762E-1,8.384164423E-2,2.387334555E-1
3.335144750E0,-1.681064516E-1,1.213972718E-1,2.107457519E-1
3.345195750E0,-9.426072240E-2,1.762160510E-1,1.847088337E-1
3.355246750E0,-3.279203176E-2,2.161935568E-1,1.736005247E-1
3.365296750E0,1.198209822E-2,2.538810074E-1,1.692550331E-1
3.375347750E0,5.872217193E-2,2.939216495E-1,1.674068123E-1
