"Time (s)","X (m/s^2)","Y (m/s^2)","Z (m/s^2)"
1.789166667E-2,1.110128975E-1,-1.225878994E-1,-7.885613501E-2
2.786666667E-2,1.118060540E-1,-9.786353275E-2,-7.526769876E-2
3.784166667E-2,6.262874113E-2,-1.334377552E-2,-7.377548933E-2
4.781666667E-2,7.477876190E-3,1.121800383E-1,-6.853872299E-2
5.779166667E-2,-5.277039036E-2,2.241147859E-1,-6.988709092E-2
6.776666667E-2,-9.597223258E-2,3.035806576E-1,-8.021444321E-2
7.774266667E-2,-1.377931635E-1,3.403284893E-1,-6.808790267E-2
8.771766667E-2,-1.757658042E-1,3.375159055E-1,-8.275038064E-2
9.769266667E-2,-1.201100413E-1,1.887906598E-1,-7.870118380E-2
1.076676667E-1,-3.889132965E-2,1.125292998E-2,-8.438467741E-2
1.176426667E-1,2.855408278E-2,-1.193056563E-1,-7.225638270E-2
1.276176667E-1,9.948174968E-2,-1.900084155E-1,-6.821478724E-2
1.375926667E-1,1.168351254E-1,-1.630087145E-1,-7.779837370E-2
1.475676667E-1,1.169262050E-1,-6.222194851E-2,-7.540861666E-2
1.575426667E-1,9.178357964E-2,8.450849220E-2,-7.885847390E-2
1.675176667E-1,7.111574625E-2,1.921209049E-1,-8.125992537E-2
1.774926667E-1,7.278954827E-2,2.174464019E-1,-6.374926865E-2
1.874676667E-1,7.825403625E-2,1.807417847E-1,-7.063085675E-2
1.974426667E-1,7.834003600E-2,9.088142736E-2,-7.616466165E-2
2.074176667E-1,7.174958899E-2,-9.713047463E-3,-8.124823093E-2
2.173926667E-1,3.089657787E-2,-6.278760267E-2,-8.184347749E-2
2.273688333E-1,-2.414349147E-2,-4.702931081E-2,-8.184113860E-2
2.373438333E-1,-9.934808599E-2,1.472626744E-2,-7.914674163E-2
2.473188333E-1,-1.509790916E-1,1.044448481E-1,-8.858063936E-2
2.572938333E-1,-1.902934490E-1,1.661644568E-1,-9.067803562E-2
2.672688333E-1,-1.557078262E-1,1.647400933E-1,-7.990337133E-2
2.772438333E-1,-6.839888774E-2,1.000916600E-1,-7.780655980E-2
2.872188333E-1,1.984658282E-2,8.226566473E-3,-7.526009738E-2
2.971938333E-1,1.299322124E-1,-7.002591661E-2,-7.151378632E-2
3.071688333E-1,2.046878869E-1,-1.178552362E-1,-7.465608001E-2
3.171438333E-1,2.258165449E-1,-8.406802327E-2,-6.672491670E-2
3.271188333E-1,1.957633182E-1,2.692992727E-2,-6.942282200E-2
3.370938333E-1,1.211877197E-1,1.342818008E-1,-7.990571022E-2
3.470688333E-1,3.150888185E-2,2.461168716E-1,-7.721540630E-2
3.570438333E-1,-3.706996766E-2,2.742174389E-1,-8.455307722E-2
3.670188333E-1,-8.386733587E-2,2.300621351E-1,-8.006124616E-2
3.769948333E-1,-9.902480805E-2,1.019658022E-1,-7.930695534E-2
3.869698333E-1,-7.121026557E-2,-4.039083897E-2,-8.154819310E-2
3.969448333E-1,-3.548115126E-2,-1.473258700E-1,-7.495955050E-2
4.069198333E-1,-6.735229553E-3,-1.810102084E-1,-8.334153414E-2
4.168948333E-1,1.715415929E-2,-1.359369283E-1,-8.214519382E-2
4.268698333E-1,2.395515631E-2,-1.028538024E-2,-6.987422705E-2
4.368448333E-1,2.405751456E-2,1.435102146E-1,-8.020684183E-2
4.468198333E-1,3.243493463E-2,2.535547492E-1,-7.587171614E-2
4.567948333E-1,5.508719425E-2,3.021683540E-1,-7.557292342E-2
4.667698333E-1,1.005426904E-1,2.490066387E-1,-7.168218613E-2
4.767448333E-1,1.281947397E-1,1.045115977E-1,-6.629163802E-2
4.867198333E-1,1.434822850E-1,-3.045763470E-2,-7.317322612E-2
4.966948333E-1,1.391639427E-1,-1.483840424E-1,-6.898194194E-2
5.066698333E-1,7.148860218E-2,-1.916085792E-1,-7.257622540E-2
5.166448333E-1,-3.920969227E-2,-1.422525973E-1,-7.392985582E-2
5.266208333E-1,-1.641614565E-1,1.422377234E-2,-8.276616812E-2
5.365958333E-1,-2.989751895E-1,2.094722798E-1,-8.995473504E-2
5.465708333E-1,-4.612420385E-1,3.492523271E-1,-8.142481685E-2
5.565458333E-1,-6.463247596E-1,4.488433101E-1,-8.276967645E-2
5.665208333E-1,-8.070256146E-1,5.132389884E-1,-8.231476307E-2
5.764958333E-1,-8.830716509E-1,4.926411846E-1,-8.695160508E-2
5.864708333E-1,-9.266855939E-1,5.670864359E-1,-8.769361675E-2
5.964458333E-1,-1.237704988E0,4.084229336E-1,-8.259776831E-2
6.064208333E-1,-1.585773217E0,-8.675681971E-2,-7.555889010E-2
6.163958333E-1,-7.708262334E-1,-1.932460773E0,-1.104468870E-1
6.263708333E-1,3.524726738E0,-2.696110207E0,-8.921798587E-2
6.363458333E-1,2.720993910E0,1.314242702E0,9.687549949E-2
6.463208333E-1,-1.076846039E0,1.908966368E0,-1.857028913E-1
6.562958333E-1,6.544108741E-1,2.130521645E-1,-1.067888689E-1
6.662718333E-1,6.837017700E-1,-5.548156153E-1,-9.970262825E-2
6.762468333E-1,-3.685679097E-1,-2.693493761E-1,-2.442101312E-1
6.862218333E-1,-1.723331304E0,-2.535663888E-1,-8.558072537E-1
6.961968333E-1,-4.399783903E0,-5.218277808E-1,-1.535777038E0
7.061718333E-1,-6.375975856E0,-1.550464221E0,-1.700260384E0
7.161468333E-1,-4.987426445E0,-1.525620132E0,-2.845508906E0
7.261218333E-1,-3.565471014E0,-1.525172967E0,-3.820515743E0
7.360968333E-1,-3.198865503E0,-5.954518638E-1,-2.865535035E0
7.460718333E-1,-2.974616012E0,-4.056132733E-1,-1.259271566E0
7.560468333E-1,-1.752288617E0,-1.354628689E0,-3.146199632E-1
7.660218333E-1,3.217924502E-1,-1.897150022E0,6.663837790E-1
7.759968333E-1,2.177571521E0,-2.418390852E0,-8.441543376E-1
7.859718333E-1,3.033117989E0,-2.417330752E0,-3.266597310E0
7.959468333E-1,3.528547309E0,-2.472694821E0,-8.453303297E0
8.059218333E-1,2.822362118E0,-2.679177255E0,-1.024048137E1
8.158978333E-1,1.770759678E0,-1.768291569E0,-6.929139413E0
8.258728333E-1,2.440869303E0,-2.159320315E0,-5.809619225E0
8.358478333E-1,3.362195193E0,-3.144886055E0,-5.796829026E0
8.458228333E-1,3.239468569E0,-3.786637268E0,-4.366466176E0
8.557978333E-1,3.065023322E0,-3.955028016E0,-2.081637424E0
8.657728333E-1,3.378545762E0,-2.994166178E0,-3.772050512E-1
8.757478333E-1,3.306739615E0,-2.798164293E0,2.116534191E-1
8.857228333E-1,3.329126850E0,-2.942132975E0,3.242895037E-1
8.956978333E-1,3.045278444E0,-3.013433923E0,4.484212142E-1
9.056728333E-1,1.951814618E0,-3.221332260E0,5.348945171E-1
9.156478333E-1,4.940061074E-1,-3.623727993E0,7.563399759E-1
9.256228333E-1,-9.593152499E-1,-3.811895193E0,9.109517598E-1
9.355978333E-1,-2.796235589E0,-3.807760627E0,7.890677190E-1
9.455728333E-1,-4.524025834E0,-3.727710783E0,5.283770643E-1
9.555478333E-1,-5.948259047E0,-3.393563166E0,-5.825522482E-2
9.655238333E-1,-8.026014504E0,-3.016652522E0,-6.250331470E-1
9.754988333E-1,-9.385738311E0,-2.481778178E0,-1.262707390E0
9.854738333E-1,-1.022352328E1,-2.352616108E0,-2.045419185E0
9.954488333E-1,-1.091320353E1,-2.093202924E0,-2.426481645E0
1.005423833E0,-1.073265555E1,-2.086666321E0,-2.602992713E0
1.015398833E0,-9.451755715E0,-2.373143051E0,-2.287652373E0
1.025373833E0,-7.205777618E0,-1.587153014E0,2.009512019E0
1.035348833E0,-5.201043359E0,-1.507211343E0,2.419236360E0
1.045323833E0,-3.682309493E0,-1.856212350E0,2.160649679E0
1.055298833E0,-3.639364910E0,-8.610869971E-1,2.596590012E0
1.065273833E0,-3.129647334E0,-6.790026551E-1,1.717983295E0
1.075248833E0,-2.700800843E0,-7.197986788E-1,1.064865094E0
1.085223833E0,-1.542396086E0,-1.255983384E0,5.057297748E-1
1.095198833E0,-3.756233793E-1,-1.503102797E0,-4.560173321E-1
1.105174833E0,4.250523052E-1,-1.379535343E0,-9.019482172E-1
1.115149833E0,6.921358670E-1,-1.117978862E0,-9.220187849E-1
1.125124833E0,2.827706911E-1,-2.680688176E-1,-4.168930274E-1
1.135099833E0,-1.761788003E-1,6.193642715E-1,-5.496733546E-1
1.145074833E0,-8.514364600E-2,9.556931922E-1,-1.301953316E0
1.155049833E0,-8.859554976E-3,8.930078244E-1,-2.299443868E0
1.165024833E0,8.753553727E-1,5.128016898E-1,-3.605777333E0
1.174999833E0,1.559619060E0,2.947315362E-1,-4.982974960E0
1.184974833E0,1.468322974E0,6.757899025E-1,-5.944764166E0
1.194949833E0,1.306788087E0,8.121747458E-1,-5.873284879E0
1.204924833E0,1.906202243E0,9.866106373E-1,-4.002401572E0
1.214899833E0,2.453150795E0,1.209911125E0,-1.697948395E0
1.224874458E0,1.920761225E0,1.277194451E0,-7.256043792E-2
1.234849458E0,8.660270172E-1,1.248835748E0,9.960515517E-1
1.244824458E0,-1.386597025E-1,1.386817465E0,2.152593970E0
1.254800458E0,-1.091416131E0,1.286590050E0,3.541901765E0
1.264775458E0,-1.819642401E0,9.121457613E-1,4.707440709E0
1.274750458E0,-2.184814467E0,2.750147250E-1,5.390254580E0
1.284725458E0,-1.564984465E0,-6.613598514E-1,5.835473859E0
1.294700458E0,-7.123885024E-1,-3.191804990E-1,5.231668736E0
1.304675458E0,4.637526137E-1,5.196876633E-1,3.583487163E0
1.314650458E0,-1.427077299E0,1.943904212E0,1.767232053E0
1.324625458E0,-2.476882889E0,3.088622392E0,1.405344953E0
1.334600458E0,-1.814925452E0,3.447335916E0,1.162986635E0
1.344575458E0,-2.120312662E0,3.272653856E0,1.036781502E0
1.354550458E0,-2.919175052E0,2.776642154E0,1.848713003E0
1.364525458E0,-2.275404210E0,1.894896067E0,3.013989993E0
1.374500458E0,-9.204382825E-1,9.478699100E-1,3.707652202E0
1.384476458E0,3.273452586E-1,6.679406002E-1,3.418305952E0
1.394451458E0,9.541726238E-1,7.516312131E-1,2.677655517E0
1.404426458E0,3.959278357E-1,1.144428157E0,2.065460517E0
1.414401458E0,-1.866928250E-1,1.128646522E0,2.027123247E0
1.424376458E0,-3.282673645E-1,4.633854085E-1,1.846632564E0
1.434351458E0,1.153369135E-1,-5.050655311E-1,1.198831675E0
1.444326458E0,6.156971902E-1,-1.379541483E0,2.259416022E-1
1.454301458E0,7.970175934E-1,-2.014563136E0,-7.196349567E-1
1.464276458E0,4.443462896E-1,-2.466799951E0,-1.368281207E0
1.474251458E0,2.265334135E-1,-3.059363509E0,-1.541607882E0
1.484226458E0,4.127187002E-1,-4.011550418E0,-1.259079777E0
1.494201458E0,8.018538254E-1,-5.838424948E0,-2.909081296E0
1.504176458E0,1.516321598E0,-4.199844796E0,-7.707954040E0
1.514151458E0,1.772026770E0,-3.510502802E0,-6.952455770E0
1.524127458E0,-1.842644763E-1,-5.243953151E0,-4.494745024E0
1.534102458E0,-2.122666751E0,-6.767398412E0,-2.362433583E0
1.544077458E0,-1.823947706E0,-7.496649699E0,-2.700160865E0
1.554052458E0,-1.436719358E-2,-6.761385720E0,-5.872069827E0
1.564027458E0,1.322717364E0,-4.840140637E0,-8.478134667E0
1.574002458E0,2.016533355E0,-3.157782966E0,-8.963054202E0
1.583977458E0,2.178145133E0,-2.600400350E0,-6.939448639E0
1.593952458E0,2.701977303E0,-3.771202081E0,-3.037196715E0
1.603927458E0,3.513359751E0,-4.540972234E0,1.696794739E-1
1.613902458E0,3.821529066E0,-4.391960036E0,1.595849285E0
1.623877458E0,3.415695462E0,-4.200316374E0,2.119007564E0
1.633852458E0,2.890718408E0,-3.949896500E0,1.205125033E0
1.643827458E0,2.743858570E0,-3.321683929E0,-3.869584993E-2
1.653802458E0,2.160159683E0,-2.058417546E0,-8.417838033E-1
1.663777458E0,1.270655510E0,-1.029500549E0,-1.015123415E0
1.673753458E0,5.889701521E-1,-6.824051499E-1,-3.133663201E-1
1.683728458E0,3.768472016E-2,-2.786549091E-1,2.175057511E-1
1.693703458E0,-9.120481128E-1,7.040930575E-1,2.316302852E-1
1.703678458E0,-2.279637010E0,1.231885546E0,9.414101985E-1
1.713653458E0,-3.163451841E0,1.117530965E0,1.512834026E0
1.723628458E0,-2.311930597E0,2.880069458E-1,1.902204209E0
1.733603458E0,-4.897411484E-1,-1.040419055E0,1.933215795E0
1.743578458E0,7.298091120E-1,-1.307487706E0,1.293235703E0
1.753553458E0,1.662223954E0,-6.077900004E-1,4.467799008E-1
1.763528458E0,2.315101834E0,5.026886380E-1,-1.325873691E-1
1.773503458E0,2.344389953E0,1.383041334E0,-6.517373809E-1
1.783478458E0,2.633440334E0,1.482212450E0,-1.448800290E0
1.793453458E0,3.039563083E0,1.365887942E0,-1.834218341E0
1.803428458E0,2.925692651E0,8.737237072E-1,-1.798119970E0
1.813404458E0,2.074923943E0,-1.706620985E-1,-9.003542662E-1
1.823379458E0,2.076420830E0,-7.806933367E-1,-5.446710616E-1
1.833354458E0,2.013404802E0,-7.867130452E-1,-8.738412362E-1
1.843329458E0,7.599564788E-1,-6.952801341E-1,-3.168120843E-1
1.853304458E0,-3.316569954E-1,-5.967796934E-1,-3.323791265E-2
1.863279458E0,-5.116018412E-1,-8.208584458E-1,-1.647330219E-1
1.873254458E0,-1.994628516E-1,-8.036021429E-1,2.482797933E-1
1.883229458E0,1.189423651E0,-7.642714316E-1,9.686684561E-1
1.893204458E0,3.459557473E0,-5.206588858E-1,1.333276266E0
1.903179458E0,5.723558151E0,-3.894339180E-1,1.462762272E0
1.913154458E0,6.691033190E0,-4.007254761E-1,1.561199563E0
1.923129458E0,5.866414985E0,2.103664470E-1,1.582892733E0
1.933104458E0,4.447012156E0,6.151194853E-1,1.653463363E0
1.943079458E0,3.434099573E0,4.493822041E-1,1.739278854E0
1.953055458E0,3.150192695E0,3.640096396E-2,1.849229897E0
1.963030458E0,3.252531541E0,-4.036303729E-1,1.881035827E0
1.973005458E0,3.069029249E0,-8.095999244E-1,1.648756354E0
1.982980458E0,2.352181952E0,-6.768991193E-1,8.459014857E-1
1.992955458E0,1.403142014E0,-7.887034374E-1,-1.755199653E-1
2.002930458E0,8.490902647E-2,-1.498152252E0,-7.764845109E-1
2.012905458E0,-3.501983701E-1,-1.864635556E0,-1.310163392E0
2.022880458E0,9.060640723E-2,-1.152914221E0,-1.000169161E0
2.032855458E0,1.248983097E0,-5.748368472E-1,-3.308337075E-1
2.042830458E0,2.201446434E0,-3.214819631E-1,3.164314306E-1
2.052805458E0,2.731097022E0,-2.877502531E-1,7.242712140E-1
2.062780458E0,2.443441640E0,-4.532697254E-1,9.489112991E-1
2.072755458E0,1.248192554E0,-8.257709840E-1,7.303289294E-1
2.082730458E0,3.393725426E-1,-1.211501276E0,4.289874083E-1
2.092706458E0,-2.900657505E-1,-1.547436386E0,-2.329530716E-3
2.102681458E0,-5.575027764E-1,-1.838747301E0,-3.755596447E-1
2.112656458E0,-4.502379441E-1,-1.806661583E0,-7.758752310E-1
2.122631458E0,-5.719901302E-1,-1.268252012E0,-8.055042422E-1
2.132606458E0,-1.030457738E0,-8.709380937E-1,-2.126679111E-1
2.142581458E0,-9.181576491E-1,-7.909636787E-1,4.414875859E-1
2.152556458E0,-1.668805580E-1,-6.609525928E-1,5.898782247E-1
2.162531458E0,7.370915267E-1,-9.061020792E-1,2.690853560E-1
2.172506458E0,1.181861228E0,-1.045858427E0,2.555923212E-1
2.182481458E0,8.484632239E-1,-6.593598112E-1,8.129910171E-2
2.192456458E0,2.646930738E-1,-4.414136186E-2,2.042894357E-1
2.202431458E0,9.138152875E-2,4.389484325E-1,6.593197578E-1
2.212406458E0,-4.453363694E-2,3.465741196E-1,1.288207682E0
2.222381667E0,-3.564171032E-1,3.332838370E-1,2.123951384E0
2.232357667E0,-2.540018054E-1,5.643514739E-1,2.398315607E0
2.242332667E0,5.650162292E-1,9.157972012E-1,2.103548695E0
2.252307667E0,1.103925371E0,1.038130016E0,1.579659222E0
2.262282667E0,1.252429008E0,9.361202225E-1,1.181045176E0
2.272257667E0,6.122692234E-1,9.202624275E-1,8.417119557E-1
2.282232667E0,-1.189105489E-1,6.212193006E-1,6.044740444E-1
2.292207667E0,-7.861132671E-1,3.997532304E-1,2.102869248E-1
2.302182667E0,-1.012799293E0,-1.828623140E-1,-3.278761858E-1
2.312157667E0,-1.298012732E0,-6.315754505E-1,-5.380496746E-1
2.322132667E0,-1.701547064E0,-7.317138425E-1,-6.302000391E-1
2.332107667E0,-1.725628822E0,-2.642380142E-1,-4.590052593E-1
2.342082667E0,-1.466089484E0,1.131940551E-1,1.796264648E-3
2.352057667E0,-9.970389272E-1,4.045249969E-3,5.592943633E-1
2.362032667E0,-7.712873594E-1,-1.968791132E-1,4.593958533E-1
2.372008667E0,-1.861130370E-1,-2.756943177E-1,-1.077747095E-1
2.381983667E0,7.797503270E-1,-5.396218447E-1,-7.675745237E-1
2.391958667E0,-8.026527744E-2,-4.045156413E-1,1.060334671E0
2.401933667E0,-1.344366241E0,-3.326855206E-1,1.844515287E0
2.411908667E0,-1.844313120E0,-3.333526880E-2,1.328658135E0
2.421883667E0,-1.453530688E0,3.711277476E-1,8.230067128E-1
2.431858667E0,-4.094539073E-1,1.144893596E-1,5.278451139E-1
2.441833667E0,2.164350894E-1,-8.284766369E-2,2.189530832E-1
2.451808667E0,7.853797339E-1,-9.844642706E-2,-2.853470474E-1
2.461783667E0,1.022418474E0,1.067051075E-2,-6.568224120E-1
2.471758667E0,9.458448730E-1,1.026843428E-1,-7.075195259E-1
2.481733667E0,1.180775765E0,1.329845412E-1,-5.302898347E-1
2.491708667E0,1.460581845E0,1.521302987E-1,-7.186105245E-1
2.501683667E0,1.602403137E0,3.044919278E-1,-9.740344459E-1
2.511659667E0,1.492680574E0,5.055385709E-1,-9.034070975E-1
2.521634667E0,9.600299259E-1,4.179821444E-1,-6.096646178E-1
2.531609667E0,7.035613263E-1,3.226804230E-1,-2.732187527E-1
2.541584667E0,7.550033755E-1,6.399909094E-2,-2.725194257E-1
2.551559667E0,6.852053815E-1,-1.030686510E-1,-5.271680063E-1
2.561534667E0,5.869625472E-1,2.829306125E-1,-9.254125088E-1
2.571509667E0,2.771346331E-2,-1.443472892E-1,-2.112677368E0
2.581484667E0,-1.666336593E0,-2.160319165E0,6.411922783E0
2.591459667E0,2.476260380E-1,4.287650094E0,2.043147542E0
2.601434667E0,-2.476644469E-1,1.540305122E0,1.555183947E0
2.611409667E0,-4.047350216E-1,6.886179627E-1,1.836293517E0
2.621384667E0,2.362553963E-1,-1.338998497E-1,1.071584714E0
2.631359667E0,1.882559684E-1,-5.258693762E-1,-5.037130702E-1
2.641334667E0,-4.662213812E-1,-4.904816251E-2,-1.246069137E0
2.651310667E0,-7.614770472E-1,-1.667261549E-1,-6.855415964E-1
2.661285667E0,-8.461363976E-1,9.817869768E-2,2.306948769E-1
2.671260667E0,-5.033916560E-1,2.387574198E-1,6.951941800E-1
2.681235667E0,1.666973940E-1,8.063266531E-2,7.593890065E-1
2.691210667E0,2.069417328E-1,2.462488725E-1,7.677657276E-1
2.701185667E0,1.067424566E-1,3.862728767E-1,7.494639426E-1
2.711160667E0,5.958641656E-2,1.576939244E-1,6.683700782E-1
2.721135667E0,-1.291402162E-1,-4.375862505E-2,9.409222484E-1
2.731110667E0,-3.448728357E-1,1.370583694E-2,1.300615473E0
2.741085667E0,-3.720847541E-1,-1.359655614E-1,1.475698652E0
2.751060667E0,-5.367230876E-1,-1.254569089E-1,1.953550072E0
2.761035667E0,-3.065366992E-1,-8.353694078E-2,2.959212692E0
2.771010667E0,3.546216425E-1,2.674468200E-1,4.060963776E0
2.780985667E0,4.629883095E-1,6.857834519E-1,4.775835591E0
2.790961667E0,5.249801975E-1,7.658332229E-1,5.104418120E0
2.800936667E0,1.001887438E0,7.640849054E-1,4.868986999E0
2.810911667E0,1.353503393E0,3.432773133E-1,4.932495947E0
2.820886667E0,9.878218880E-1,-5.042529143E-1,5.354835071E0
2.830861667E0,8.663512453E-2,-1.299308182E0,5.174849002E0
2.840836667E0,-1.393983813E0,-1.966319221E0,4.357141036E0
2.850811667E0,-3.264088270E0,-2.424115715E0,3.537943200E0
2.860786667E0,-3.996420748E0,-2.959347762E0,2.961512402E0
2.870761667E0,-3.065284984E0,-3.898440417E0,3.091180841E0
2.880736667E0,-1.204803582E0,-4.516541982E0,3.794101532E0
2.890711667E0,7.161295509E-1,-4.369617240E0,4.722603124E0
2.900686667E0,2.992215546E0,-4.296045819E0,5.582395256E0
2.910661667E0,4.731041826E0,-4.401092510E0,5.604489545E0
2.920636667E0,5.542245934E0,-4.192451284E0,4.796015794E0
2.930612667E0,5.260639935E0,-3.534415867E0,3.747629323E0
2.940587667E0,4.174421979E0,-2.686308519E0,3.048703743E0
2.950562667E0,3.131154746E0,-2.258249356E0,2.860362295E0
2.960537667E0,1.969790713E0,-2.246692335E0,2.724558665E0
2.970512667E0,8.936580348E-1,-2.195611059E0,2.442523481E0
2.980487667E0,3.244427007E-1,-2.230052913E0,2.345589509E0
2.990462667E0,5.504171205E-1,-2.299197992E0,2.291178828E0
3.000437667E0,7.269556707E-1,-2.321100493E0,2.289967432E0
3.010412667E0,9.263737911E-1,-2.242314232E0,2.518434373E0
3.020387667E0,1.164615669E0,-1.833879202E0,2.719824175E0
3.030362667E0,1.571710517E0,-1.225968164E0,2.731939898E0
3.040337667E0,2.730751451E0,-5.738723490E-1,3.058761538E0
3.050312667E0,4.964108334E0,2.000557593E-1,3.238785614E0
3.060288667E0,7.445619879E0,1.130888052E0,3.303740286E0
3.070263667E0,8.737225962E0,1.584001657E0,3.031878964E0
3.080238667E0,8.328100376E0,1.725974977E0,2.105256082E0
3.090213667E0,6.859141225E0,1.756357109E0,1.261366038E0
3.100188667E0,5.387840264E0,1.617255650E0,4.880331767E-1
3.110163667E0,4.242837911E0,1.386711338E0,-1.518960446E-1
3.120138667E0,3.326961041E0,1.075876570E0,-3.134534436E-1
3.130113667E0,2.687098478E0,6.179203016E-1,-1.349163151E-1
3.140088667E0,2.474241117E0,1.268901345E-1,-2.875719130E-2
3.150063667E0,2.616081120E0,-3.407757282E-3,-1.595564818E-1
3.160038667E0,2.891575609E0,2.022078270E-1,-3.976451629E-1
3.170013667E0,2.995213414E0,4.847961581E-1,-5.189362961E-1
3.179988667E0,2.742583292E0,8.422089690E-1,-4.921513706E-1
3.189963667E0,2.279874406E0,1.317456332E0,-3.698656261E-1
3.199939667E0,1.646999851E0,1.666815480E0,-1.462751162E-1
3.209914667E0,8.772232658E-1,1.616876750E0,3.771746457E-2
3.219889292E0,1.658954483E-1,1.348151875E0,-1.565387338E-1
3.229864292E0,-1.728378475E-1,1.012109760E0,-3.885100579E-1
3.239839292E0,-1.943275344E-1,8.655422831E-1,-5.697462612E-1
3.249814292E0,-1.701276630E-1,9.418557563E-1,-4.523938125E-1
3.259789292E0,-1.084909934E-1,1.089987364E0,-6.747862279E-2
3.269764292E0,1.427439827E-1,1.143238834E0,2.785432273E-1
3.279739292E0,1.670584595E-1,1.185527651E0,6.911876678E-1
3.289714292E0,-6.096307039E-3,9.259384659E-1,9.076147538E-1
3.299689292E0,-3.931796443E-1,5.746620154E-1,5.515602511E-1
3.309664292E0,-7.926485538E-1,4.695618224E-1,2.322397113E-1
3.319639292E0,-1.175734150E0,4.776032057E-1,-8.742815316E-2
3.329614292E0,-1.631422868E0,4.363508070E-1,-9.631241262E-2
3.339589292E0,-1.812826887E0,2.795290679E-1,-5.743193686E-2
3.349565292E0,-1.631702365E0,2.598248282E-1,-2.170194089E-2
