"Time (s)","X (m/s^2)","Y (m/s^2)","Z (m/s^2)"
-1.606041667E-3,2.095642090E-3,1.309776306E-1,-9.884544983E0
8.368958333E-3,3.083587646E-2,1.260379028E-1,-9.889335022E0
1.834295833E-2,5.942642212E-2,1.071771240E-1,-9.887987823E0
2.831795833E-2,4.550537109E-2,1.176553345E-1,-9.882000275E0
3.829295834E-2,2.125579834E-2,1.519340515E-1,-9.885293427E0
4.826795833E-2,-2.784210205E-2,1.730401611E-1,-9.896220703E0
5.824295833E-2,-7.978408813E-2,1.933978271E-1,-9.890981598E0
6.821695833E-2,-1.243913269E-1,1.971400452E-1,-9.895023193E0
7.819195833E-2,-1.502874756E-1,1.800755310E-1,-9.900561676E0
8.816695833E-2,-1.661544800E-1,1.701960754E-1,-9.892777863E0
9.814195833E-2,-1.833686829E-1,1.666035461E-1,-9.888586578E0
1.081169583E-1,-1.652563477E-1,1.583706665E-1,-9.900262299E0
1.180909583E-1,-1.501377869E-1,1.666035461E-1,-9.887688446E0
1.280659583E-1,-1.143621826E-1,1.718426514E-1,-9.884095917E0
1.380409583E-1,-7.873626709E-2,1.592687988E-1,-9.894873505E0
1.480159583E-1,-2.649490356E-2,1.384620667E-1,-9.888736267E0
1.579909583E-1,1.796264648E-2,1.263372803E-1,-9.885443115E0
1.679649583E-1,5.523513794E-2,1.152603149E-1,-9.887239380E0
1.779399583E-1,6.361770630E-2,1.116677856E-1,-9.890981598E0
1.879149583E-1,5.403762817E-2,1.303788757E-1,-9.881102142E0
1.978899583E-1,1.841171265E-2,1.546284485E-1,-9.890532532E0
2.078649583E-1,-2.649490356E-2,1.722917175E-1,-9.892777863E0
2.178389583E-1,-7.694000244E-2,1.938468933E-1,-9.884994049E0
2.278139583E-1,-1.363664246E-1,2.016307068E-1,-9.890682220E0
2.377889583E-1,-1.616638184E-1,1.942959595E-1,-9.892029419E0
2.477639583E-1,-1.703457642E-1,1.739382935E-1,-9.888137512E0
2.577389583E-1,-1.763333130E-1,1.450483704E-1,-9.890532532E0
2.677129583E-1,-1.534309387E-1,1.155596924E-1,-9.890981598E0
2.776879583E-1,-1.055305481E-1,1.070274353E-1,-9.898016968E0
2.876629583E-1,-7.544311523E-2,1.058299255E-1,-9.892328796E0
2.976379583E-1,-2.918930054E-2,1.270857239E-1,-9.895621948E0
3.076129583E-1,1.197509766E-3,1.582209778E-1,-9.883946228E0
3.175869583E-1,1.437011719E-2,1.806742859E-1,-9.883197784E0
3.275619583E-1,2.350112915E-2,1.936972046E-1,-9.881850586E0
3.375369583E-1,2.799179077E-2,1.969903564E-1,-9.878557434E0
3.475119583E-1,1.556762695E-2,1.902543640E-1,-9.891730042E0
3.574869583E-1,-2.395019531E-2,1.686991882E-1,-9.888436890E0
3.674619583E-1,-5.179229736E-2,1.469943237E-1,-9.888436890E0
3.774359583E-1,-8.726852417E-2,1.323248291E-1,-9.887538757E0
3.874109583E-1,-1.314266968E-1,1.285826111E-1,-9.899364166E0
3.973859583E-1,-1.618135071E-1,1.392105103E-1,-9.902507629E0
4.073609583E-1,-1.675016785E-1,1.529818726E-1,-9.900861053E0
4.173359583E-1,-1.507365417E-1,1.624122620E-1,-9.897867279E0
4.273099583E-1,-1.269360352E-1,1.600172424E-1,-9.885742493E0
4.372849583E-1,-8.038284302E-2,1.633103943E-1,-9.887538757E0
4.472599583E-1,-4.056564331E-2,1.672023010E-1,-9.887538757E0
4.572349583E-1,2.395019531E-3,1.562750244E-1,-9.893975372E0
4.672099583E-1,2.589614868E-2,1.597178650E-1,-9.884544983E0
4.771839583E-1,4.520599365E-2,1.639091492E-1,-9.886041870E0
4.871589583E-1,2.978805542E-2,1.698966980E-1,-9.888436890E0
4.971339583E-1,2.993774414E-3,1.743873596E-1,-9.889634399E0
5.071089583E-1,-2.574645996E-2,1.561253357E-1,-9.883796539E0
5.170839583E-1,-7.439529419E-2,1.447489929E-1,-9.886341248E0
5.270579583E-1,-1.085243225E-1,1.245410156E-1,-9.888736267E0
5.370329583E-1,-1.302291870E-1,1.137634277E-1,-9.894274750E0
5.470079583E-1,-1.451980591E-1,1.149609375E-1,-9.902058563E0
5.569829583E-1,-1.486408997E-1,1.251397705E-1,-9.897118835E0
5.669579583E-1,-1.327738953E-1,1.537303162E-1,-9.898765411E0
5.769319583E-1,-1.164578247E-1,1.808239746E-1,-9.895322571E0
5.869069583E-1,-8.532257080E-2,2.002835083E-1,-9.888287201E0
5.968819583E-1,-5.957611084E-2,2.206411743E-1,-9.889634399E0
6.068569583E-1,-3.517684937E-2,2.100132751E-1,-9.893077240E0
6.168319583E-1,-3.079096985E-1,2.972817993E-1,-9.894873505E0
6.268059583E-1,-5.984555054E-1,1.190025330E-1,-9.894873505E0
6.367809583E-1,-6.801855469E-1,-8.637039185E-2,-9.908046112E0
6.467559583E-1,-5.050497437E-1,-3.338058472E-2,-9.887538757E0
6.567309583E-1,-3.682342529E-2,2.395019531E-2,-9.891280975E0
6.667059583E-1,4.023632813E-1,6.062393188E-2,-9.908495178E0
6.766799583E-1,3.855981445E-1,-1.199006653E-1,-9.978848877E0
6.866549583E-1,-4.059558105E-1,9.430389404E-3,-1.027852570E1
6.966299583E-1,-1.086740112E0,3.739224243E-1,-1.057520874E1
7.066049583E-1,-2.406246185E0,5.053491211E-1,-1.077444443E1
7.165799583E-1,-2.510579224E0,1.697470093E-1,-9.971963196E0
7.265549583E-1,-5.164260864E-1,-1.645079041E-1,-9.321266327E0
7.365289583E-1,1.144070892E0,-2.607577515E-1,-1.006881180E1
7.465039583E-1,1.309776306E0,-2.335144043E-1,-1.081545914E1
7.564789583E-1,8.274792480E-1,1.083746338E-1,-1.187420746E1
7.664539583E-1,3.329077148E-1,1.890568542E-1,-1.383303406E1
7.764289583E-1,-4.105961609E-1,1.984872437E-1,-1.521166718E1
7.864029583E-1,-7.322772217E-1,5.478607178E-2,-1.544353500E1
7.963778750E-1,-1.188528442E-1,-2.868035889E-1,-1.478789841E1
8.063528750E-1,1.416803741E0,-4.216731262E-1,-1.384291351E1
8.163278750E-1,3.182831268E0,-1.296304321E-1,-1.322649536E1
8.263028750E-1,4.492308197E0,4.989125061E-1,-1.302396652E1
8.362768750E-1,5.162763977E0,1.164278870E0,-1.300480637E1
8.462518750E-1,5.508095856E0,1.734293518E0,-1.301708084E1
8.562268750E-1,5.965993652E0,2.245630188E0,-1.300839890E1
8.662018750E-1,6.634204102E0,2.800526276E0,-1.317350555E1
8.761768750E-1,7.161707153E0,3.265309753E0,-1.352826782E1
8.861508750E-1,7.434440002E0,3.464695129E0,-1.373019791E1
8.961258750E-1,7.497159576E0,3.311413879E0,-1.354263794E1
9.061008750E-1,7.766299896E0,2.940784607E0,-1.292247757E1
9.160758750E-1,8.545279999E0,2.786305847E0,-1.209784241E1
9.260508750E-1,9.258097687E0,3.253634033E0,-1.117695740E1
9.360258750E-1,9.568252716E0,3.925137634E0,-1.030082932E1
9.459998750E-1,9.326056366E0,4.203408966E0,-9.644144897E0
9.559748750E-1,8.628506927E0,4.410129089E0,-9.168434143E0
9.659498750E-1,7.629484406E0,4.334985352E0,-8.942104797E0
9.759248750E-1,6.616540833E0,4.208199005E0,-8.887468414E0
9.858998750E-1,5.605094147E0,4.115541687E0,-8.860674133E0
9.958738750E-1,4.736151123E0,3.942651215E0,-8.758137360E0
1.005848875E0,4.121379547E0,3.785028992E0,-8.559051361E0
1.015823875E0,3.837420044E0,3.752845917E0,-8.235274658E0
1.025798875E0,4.220772858E0,3.517984314E0,-7.832761688E0
1.035773875E0,4.756209412E0,3.490142212E0,-7.253166962E0
1.045748875E0,5.001848602E0,3.627855835E0,-6.468798065E0
1.055722875E0,5.082979889E0,3.728895721E0,-5.642666016E0
1.065697875E0,5.023254089E0,3.721560974E0,-4.899461517E0
1.075672875E0,4.542304230E0,3.521576843E0,-4.329746246E0
1.085647875E0,3.729644165E0,3.260819092E0,-3.978726196E0
1.095622875E0,2.802023163E0,3.016078033E0,-3.779640198E0
1.105596875E0,2.141895905E0,2.772684174E0,-3.751498718E0
1.115571875E0,1.766476593E0,2.536774750E0,-3.900738373E0
1.125546875E0,1.594933319E0,2.530637512E0,-4.033512268E0
1.135521875E0,1.560504913E0,2.675835571E0,-3.959566040E0
1.145496875E0,1.667682037E0,2.618953857E0,-3.848646698E0
1.155470875E0,1.907932434E0,2.394720154E0,-3.794908447E0
1.165445875E0,1.971101074E0,2.177521820E0,-3.757785645E0
1.175420875E0,1.615440674E0,1.959874420E0,-3.892804871E0
1.185395875E0,8.780740356E-1,1.906435547E0,-4.271367645E0
1.195370875E0,-3.951782227E-2,1.991758118E0,-4.687651978E0
1.205345875E0,-1.089733887E0,2.032922516E0,-5.057981873E0
1.215319875E0,-1.946552124E0,1.843865662E0,-5.495821381E0
1.225294875E0,-2.468217316E0,1.494641876E0,-6.034551086E0
1.235269875E0,-2.905009003E0,1.251397705E0,-6.482419739E0
1.245244875E0,-3.429069214E0,1.217418365E0,-6.766528931E0
1.255219875E0,-3.878434753E0,1.333576813E0,-7.066804504E0
1.265193875E0,-4.315226440E0,1.575174408E0,-7.382647705E0
1.275168875E0,-4.622387695E0,1.747466125E0,-7.653135223E0
1.285143875E0,-4.497846680E0,1.811981964E0,-7.708669739E0
1.295118875E0,-3.744463348E0,1.904938660E0,-7.587571564E0
1.305093875E0,-3.283571777E0,1.939816132E0,-7.366481323E0
1.315067875E0,-3.695365448E0,1.816472626E0,-7.139253845E0
1.325042875E0,-4.604874115E0,1.539548492E0,-7.183262329E0
1.335017875E0,-5.680237885E0,1.395248566E0,-7.459737396E0
1.344992875E0,-6.634503479E0,1.448238373E0,-7.874674530E0
1.354967875E0,-7.063062286E0,1.315015411E0,-8.344397736E0
1.364942875E0,-6.864874420E0,1.149010620E0,-8.757239227E0
1.374916875E0,-6.463858337E0,1.400936737E0,-8.997639313E0
1.384891875E0,-5.885461121E0,1.801653442E0,-9.098978577E0
1.394866875E0,-5.108127594E0,1.840572510E0,-9.026379547E0
1.404841875E0,-4.256398773E0,1.672322388E0,-9.009913788E0
1.414816875E0,-3.648363190E0,1.665436707E0,-9.178762665E0
1.424790875E0,-3.712879028E0,1.757495270E0,-9.491013336E0
1.434765875E0,-3.982767792E0,1.805245972E0,-9.936337280E0
1.444740875E0,-4.282145233E0,1.786235504E0,-1.044557831E1
1.454715875E0,-4.934638367E0,1.614243164E0,-1.218226685E1
1.464690875E0,-9.007219391E0,2.459834747E0,-2.064102676E1
1.474665875E0,-1.130089966E1,2.875071259E0,-1.990979736E1
1.484639875E0,-5.482648773E0,1.436712341E0,-1.669972275E1
1.494614875E0,-4.214485931E0,2.202519836E0,-1.118698654E1
1.504589875E0,-4.997657318E0,3.083437958E0,-9.080566864E0
1.514564875E0,-5.053042145E0,3.594175873E0,-9.005872192E0
1.524539875E0,-4.320764923E0,4.339775391E0,-8.859027557E0
1.534513875E0,-3.324736176E0,4.845274200E0,-8.513246613E0
1.544488875E0,-2.839295654E0,5.020260315E0,-8.203241272E0
1.554463875E0,-2.854713593E0,4.880900116E0,-8.478369141E0
1.564438875E0,-2.704276428E0,4.705764313E0,-8.918753357E0
1.574413875E0,-2.442321167E0,4.685107269E0,-9.370513916E0
1.584388875E0,-2.370769958E0,4.767585754E0,-9.806108093E0
1.594362875E0,-2.229314117E0,4.925058289E0,-1.006536896E1
1.604337875E0,-1.861828308E0,5.086273041E0,-9.988578644E0
1.614312875E0,-1.369202728E0,5.291496277E0,-9.431586914E0
1.624287875E0,-4.486170959E-1,5.449567566E0,-8.107739868E0
1.634262875E0,3.326083374E-1,5.453309784E0,-6.784042511E0
1.644236875E0,6.797364807E-1,5.488935699E0,-7.151977386E0
1.654211875E0,4.977149963E-1,5.592969360E0,-7.942782898E0
1.664186875E0,3.704795837E-1,5.309907990E0,-8.295000458E0
1.674161875E0,7.649093628E-2,5.050796814E0,-8.349337463E0
1.684136875E0,-4.161346436E-1,5.013973389E0,-8.145760803E0
1.694111875E0,-7.788304138E-1,5.038222961E0,-8.199648743E0
1.704085875E0,-7.523355103E-1,5.325325928E0,-8.731193390E0
1.714060875E0,-8.327183533E-1,5.666616211E0,-8.715027008E0
1.724035875E0,-7.466473389E-1,5.715564423E0,-8.098010101E0
1.734010875E0,-6.396199036E-1,5.596412201E0,-7.831863556E0
1.743985875E0,-7.048841858E-1,5.586233368E0,-8.062533875E0
1.753960875E0,-7.960446167E-1,5.698948975E0,-8.626411285E0
1.763934875E0,-8.482859802E-1,5.663772125E0,-8.952133942E0
1.773909875E0,-8.285270691E-1,5.476062469E0,-9.053922272E0
1.783884875E0,-8.671467590E-1,5.253625031E0,-9.352102203E0
1.793859458E0,-8.117619324E-1,4.938081207E0,-1.040441391E1
1.803834458E0,-7.126679993E-1,5.088967438E0,-1.151226013E1
1.813808458E0,-3.267704773E-1,5.622607727E0,-1.186298080E1
1.823783458E0,-2.380050659E-1,5.888454895E0,-1.157632690E1
1.833758458E0,-6.255491638E-1,5.929918671E0,-1.123982666E1
1.843733458E0,-1.135239258E0,6.141428833E0,-1.145912064E1
1.853708458E0,-2.097138977E0,5.863307190E0,-1.176912598E1
1.863683458E0,-3.598067780E0,5.433550873E0,-1.173814041E1
1.873657458E0,-4.673730927E0,5.166506195E0,-1.331301544E1
1.883632458E0,-3.805686035E0,5.001549225E0,-1.187779999E1
1.893607458E0,-3.332819366E0,4.860692139E0,-1.061757065E1
1.903582458E0,-3.361858978E0,4.969216461E0,-1.039663010E1
1.913557458E0,-1.033899994E0,5.667664032E0,-1.067325485E1
1.923531458E0,2.438429260E0,6.239325256E0,-1.142020157E1
1.933506458E0,4.532724152E0,6.150110779E0,-1.277129196E1
1.943481458E0,4.215234375E0,6.447841644E0,-1.300405792E1
1.953456458E0,3.573668518E0,6.116430817E0,-1.162497574E1
1.963431458E0,2.913541260E0,5.328469391E0,-9.856702881E0
1.973406458E0,1.763931885E0,4.777315521E0,-7.932304688E0
1.983380458E0,9.530680847E-1,3.940854950E0,-5.637875977E0
1.993355458E0,-6.810836792E-2,3.622167664E0,-3.060385895E0
2.003330458E0,-1.087787933E0,3.291505280E0,-5.522016907E-1
2.013305458E0,-1.580263824E0,2.607427826E0,1.478924561E0
2.023280458E0,-1.564097443E0,1.756896515E0,3.218606873E0
2.033254458E0,-1.661993866E0,1.086590424E0,4.592449951E0
2.043229458E0,-1.648970947E0,9.857002258E-1,6.397845612E0
2.053204458E0,-1.241518250E0,1.521136780E0,1.176538376E1
2.063179458E0,1.137634277E-2,9.833052063E-1,1.176942535E1
2.073154458E0,-7.467970276E-1,1.569037170E0,1.345477066E1
2.083129458E0,-1.495540009E0,2.214345245E0,1.437041656E1
2.093103458E0,-1.263372803E0,2.377056885E0,1.459210556E1
2.103078458E0,-8.399034119E-1,2.476899261E0,1.439286987E1
2.113053458E0,-5.409750366E-1,2.665956116E0,1.398287247E1
2.123028458E0,-3.805087280E-1,3.059038696E0,1.354772736E1
2.133003458E0,-2.043251038E-1,3.319497070E0,1.263567398E1
2.142978458E0,-2.806663513E-1,3.492986298E0,1.146421005E1
2.152952458E0,-6.045927429E-1,3.906276855E0,1.043405228E1
2.162927458E0,-8.867559814E-1,4.230053558E0,9.347461853E0
2.172902458E0,-1.072070618E0,4.508923645E0,8.430319061E0
2.182877458E0,-8.250842285E-1,4.569547577E0,7.970924377E0
2.192852458E0,-6.192622375E-1,4.862488403E0,6.530769196E0
2.202826458E0,-1.609752502E0,5.974675598E0,2.672692108E0
2.212801458E0,-3.344644775E0,7.545658722E0,2.625839539E0
2.222776458E0,-2.091301117E0,7.477999420E0,5.339246979E0
2.232751458E0,-2.683918762E-1,5.859265594E0,7.212601318E0
2.242726458E0,-2.402503967E-1,5.502407684E0,7.811655579E0
2.252701458E0,-6.788383484E-1,5.857020264E0,7.831713867E0
2.262675458E0,-8.256829834E-1,6.216871948E0,7.911048889E0
2.272650458E0,-5.896238708E-1,6.222859497E0,7.937244415E0
2.282625458E0,-5.616320801E-1,6.042783966E0,8.099506989E0
2.292600458E0,-7.409591675E-1,5.962999878E0,8.549770660E0
2.302575458E0,-9.849517822E-1,6.027216339E0,9.032965851E0
2.312550458E0,-1.135838013E0,6.139183502E0,9.427695007E0
2.322524458E0,-7.408094788E-1,5.993386688E0,9.408534851E0
2.332499458E0,-2.004331970E-1,5.732928314E0,9.149573364E0
2.342474458E0,4.367916870E-1,5.073699188E0,8.223449249E0
2.352449458E0,3.330574036E-1,5.896238708E0,7.677684174E0
2.362424458E0,5.423222351E-1,6.833888855E0,7.507188721E0
2.372398458E0,1.138532410E0,6.659052429E0,7.192992096E0
2.382373458E0,9.187893677E-1,6.616091766E0,7.228019257E0
2.392348458E0,9.467811584E-1,6.530320129E0,6.944957886E0
2.402323458E0,8.684939575E-1,6.515351257E0,6.633755035E0
2.412298458E0,4.122427368E-1,6.771019592E0,6.516997833E0
2.422273458E0,2.372566223E-1,6.993906097E0,6.671326904E0
2.432247458E0,5.879772949E-1,6.927444305E0,6.903494110E0
2.442222458E0,1.063089294E0,6.756499786E0,7.057523804E0
2.452197458E0,1.328337708E0,6.741830292E0,7.075636139E0
2.462172458E0,1.385219421E0,6.781797180E0,6.986122284E0
2.472147458E0,1.356479187E0,6.892866211E0,6.834337921E0
2.482121458E0,1.312620392E0,6.995253296E0,6.788832550E0
2.492096458E0,1.249751129E0,6.987768860E0,6.860982513E0
2.502071458E0,1.156345367E0,6.923702087E0,7.087760925E0
2.512046458E0,9.538165283E-1,6.883286133E0,7.264094238E0
2.522021458E0,6.953041077E-1,6.889423370E0,7.314539337E0
2.531996458E0,5.149291992E-1,6.866820374E0,7.393425293E0
2.541970458E0,4.303550720E-1,6.825506287E0,7.525301056E0
2.551945458E0,3.927832031E-1,6.811734924E0,7.822433167E0
2.561920458E0,4.370910645E-1,6.835385742E0,8.370742950E0
2.571895458E0,6.191125488E-1,6.704108734E0,8.890162811E0
2.581870458E0,7.650590515E-1,6.563700714E0,9.118737488E0
2.591845458E0,6.110293579E-1,6.467450867E0,9.034762115E0
2.601819458E0,3.591032410E-1,6.180497589E0,8.632997589E0
2.611794458E0,1.202000427E-1,5.882766724E0,8.166118469E0
2.621769458E0,3.861968994E-2,5.613476715E0,7.540120239E0
2.631744458E0,1.377136230E-1,5.450016632E0,6.681655426E0
2.641719458E0,3.023712158E-1,5.602699127E0,6.280040588E0
2.651694458E0,9.388476562E-1,5.772895203E0,5.908213806E0
2.661668458E0,1.328637085E0,6.061495056E0,5.422024841E0
2.671643458E0,1.882784729E0,6.547684021E0,4.459526367E0
2.681618458E0,2.682272186E0,7.152127075E0,3.228636017E0
2.691593458E0,3.306773529E0,7.506889343E0,2.006277924E0
2.701568458E0,3.835623779E0,7.939789124E0,6.014492798E-1
2.711542458E0,4.301904144E0,8.387358398E0,-9.520202637E-1
2.721517458E0,5.242098999E0,8.241112518E0,-1.736389160E0
2.731492458E0,6.137237549E0,7.851921844E0,-1.809736633E0
2.741467458E0,6.515950012E0,7.287745056E0,-1.665436707E0
2.751442458E0,6.683451691E0,6.898404694E0,-1.612596588E0
2.761417458E0,6.580316162E0,7.286248169E0,-2.994373169E0
2.771391458E0,5.303621063E0,7.155270538E0,-3.209475861E0
2.781366458E0,4.541855164E0,6.616391144E0,-3.273991699E0
2.791341458E0,4.553979950E0,6.638245697E0,-4.894521790E0
2.801316958E0,3.965553589E0,6.298901367E0,-5.117707672E0
2.811291958E0,3.641926575E0,5.714965668E0,-5.270689545E0
2.821266958E0,2.842888184E0,4.933590546E0,-5.185666351E0
2.831240958E0,9.963281250E-1,4.412224731E0,-4.897216187E0
2.841215958E0,-2.265239410E0,5.719606018E0,-5.577102356E0
2.851190958E0,-4.361330566E0,7.252867584E0,-6.368806000E0
2.861165958E0,-4.460274811E0,6.577771454E0,-7.998616791E0
2.871140958E0,-4.525688782E0,5.821094971E0,-9.240284729E0
2.881115958E0,-4.791535950E0,5.657185822E0,-1.044438080E1
2.891089958E0,-6.356531525E0,5.779631195E0,-1.306572968E1
2.901064958E0,-8.683742065E0,6.283184052E0,-1.563648376E1
2.911039958E0,-7.278015289E0,5.469625854E0,-1.354877518E1
2.921014958E0,-5.004542999E0,3.848796387E0,-9.124575348E0
2.930989958E0,-4.511019287E0,4.034709778E0,-7.560028839E0
2.940963958E0,-3.974983978E0,5.331014099E0,-7.491770782E0
2.950938958E0,-3.018772430E0,5.905519409E0,-7.577991486E0
2.960913958E0,-2.155068512E0,5.884862366E0,-7.344327393E0
2.970888958E0,-2.218237152E0,5.590274963E0,-7.194788361E0
2.980863958E0,-2.838996277E0,5.409750366E0,-7.202123108E0
2.990838958E0,-3.137176208E0,5.161566467E0,-7.525450745E0
3.000812958E0,-3.186723175E0,5.097200317E0,-8.223449249E0
3.010787958E0,-3.363804932E0,5.151237946E0,-8.561446381E0
3.020762958E0,-3.603007507E0,5.283712463E0,-9.002129974E0
3.030737958E0,-3.901187439E0,5.509892120E0,-9.893226929E0
3.040712958E0,-4.255051575E0,5.837261353E0,-1.096814163E1
3.050687958E0,-3.598516846E0,5.590125275E0,-1.188259003E1
3.060661958E0,-3.145109711E0,5.326074371E0,-1.259840149E1
3.070636958E0,-3.439098358E0,5.612279205E0,-1.264989441E1
3.080611958E0,-3.948788452E0,5.511089630E0,-1.212882797E1
3.090586958E0,-4.038901062E0,5.133275299E0,-1.139280853E1
3.100561958E0,-3.619323578E0,5.428760834E0,-1.079824493E1
3.110536958E0,-2.390379181E0,5.979615326E0,-1.047701294E1
3.120510958E0,-8.247848511E-2,6.062243500E0,-1.062385757E1
3.130485958E0,1.415905609E0,6.113586731E0,-1.098281113E1
3.140460958E0,2.169738007E0,6.082301788E0,-1.069406158E1
3.150435958E0,2.325114899E0,5.721551971E0,-9.505832520E0
3.160410958E0,2.070344696E0,4.971162415E0,-7.673941956E0
3.170385958E0,2.690654755E0,4.723876648E0,-4.971312103E0
3.180359958E0,3.033292236E0,4.647535400E0,-1.421144714E0
3.190334958E0,2.132465515E0,4.132306824E0,2.354453888E0
3.200309958E0,4.805007935E-1,3.377426605E0,5.594166870E0
3.210284958E0,-1.547481995E0,2.945574646E0,8.923244019E0
3.220259958E0,-3.343896332E0,4.012256470E0,1.414947601E1
3.230233958E0,-2.324815521E0,3.327580261E0,1.346644638E1
3.240208958E0,-2.487976227E0,2.213447113E0,1.495001129E1
3.250183958E0,-1.841770020E0,2.005379791E0,1.605830658E1
3.260158958E0,-8.294252014E-1,2.323917389E0,1.647788406E1
3.270133958E0,-1.051114197E0,2.058968353E0,1.526824951E1
3.280108958E0,-2.419718170E0,1.917811890E0,1.347557739E1
3.290082958E0,-3.558250580E0,2.485431519E0,1.120360199E1
3.300057958E0,-3.929927673E0,3.683240662E0,8.684191132E0
3.310032958E0,-3.461551666E0,5.132377167E0,6.822811890E0
3.320007958E0,-2.426753540E0,5.879473572E0,5.923482056E0
3.329982958E0,-1.377285919E0,6.236481171E0,5.536237335E0
3.339957958E0,-1.430425415E0,6.784790955E0,6.284381561E0
3.349931958E0,-5.411247253E-1,7.209308167E0,6.344855804E0
3.359906958E0,-1.224453735E-1,7.502398682E0,6.125861206E0
3.369881958E0,-5.212161255E-1,7.551047516E0,6.051016846E0
3.379856958E0,-8.927435303E-1,7.965236206E0,6.080056458E0
3.389831958E0,-1.192420349E0,8.618926849E0,6.108946381E0
