"Time (s)","X (m/s^2)","Y (m/s^2)","Z (m/s^2)"
1.834295833E-2,1.185837170E-1,-3.265897435E-2,-7.865616024E-2
2.831795833E-2,9.842709471E-2,-9.164450727E-3,-7.087585509E-2
3.829295834E-2,7.113567246E-2,2.169163518E-2,-8.210075498E-2
4.826795833E-2,1.864296546E-2,4.271363625E-2,-8.644289732E-2
5.824295833E-2,-3.258370972E-2,6.257859212E-2,-8.269950986E-2
6.821695833E-2,-7.597930034E-2,5.801368000E-2,-8.629086971E-2
7.819195833E-2,-9.281292714E-2,3.969836419E-2,-9.107915461E-2
8.816695833E-2,-1.137592068E-1,3.393783350E-2,-7.865323663E-2
9.814195833E-2,-1.209242387E-1,2.852738659E-2,-8.373972952E-2
1.081169583E-1,-1.042012202E-1,2.379736371E-2,-9.032427907E-2
1.180909583E-1,-8.380807799E-2,3.152467847E-2,-7.730136037E-2
1.280659583E-1,-4.948526929E-2,3.337064445E-2,-7.655408621E-2
1.380409583E-1,-6.299397284E-3,1.952682235E-2,-8.912793875E-2
1.480159583E-1,4.248233776E-2,-4.207345750E-4,-7.595533133E-2
1.579909583E-1,8.712193265E-2,-1.058833910E-2,-7.865206718E-2
1.679649583E-1,1.175319948E-1,-2.372567137E-2,-7.820533991E-2
1.779399583E-1,1.215419970E-1,-2.224781502E-2,-8.344795346E-2
1.879149583E-1,1.079692482E-1,8.986622281E-4,-7.072441220E-2
1.978899583E-1,6.294673830E-2,2.371120865E-2,-8.629086971E-2
2.078649583E-1,2.249394625E-2,4.084355964E-2,-8.359705746E-2
2.178389583E-1,-3.387953494E-2,6.143871398E-2,-7.686164975E-2
2.278139583E-1,-8.566234885E-2,6.385306587E-2,-8.210075498E-2
2.377889583E-1,-1.078607458E-1,5.434294419E-2,-8.195106626E-2
2.477639583E-1,-1.119634812E-1,2.998362651E-2,-8.120145321E-2
2.577389583E-1,-1.142439592E-1,3.973968755E-3,-7.970339656E-2
2.677129583E-1,-8.254567327E-2,-2.621654869E-2,-8.314272881E-2
2.776879583E-1,-3.903079945E-2,-2.918857877E-2,-8.942965508E-2
2.876629583E-1,-7.981079347E-3,-2.620860927E-2,-8.479047418E-2
2.976379583E-1,4.032588463E-2,3.276359383E-4,-8.224927425E-2
3.076129583E-1,6.169422816E-2,2.786618527E-2,-7.237274230E-2
3.175869583E-1,7.655158287E-2,5.055722837E-2,-7.387138367E-2
3.275619583E-1,8.368789030E-2,5.784063896E-2,-7.447189271E-2
3.375369583E-1,8.658898635E-2,5.924697655E-2,-7.162722230E-2
3.475119583E-1,6.491612622E-2,5.000724292E-2,-8.629437804E-2
3.574869583E-1,2.624311241E-2,2.524434859E-2,-7.761067808E-2
3.674619583E-1,1.367083588E-3,8.420017948E-3,-8.105351865E-2
3.774359583E-1,-4.127247118E-2,-6.361770630E-3,-7.970573545E-2
3.874109583E-1,-8.006172124E-2,-6.804825123E-3,-9.257896543E-2
3.973859583E-1,-1.081240258E-1,6.786022671E-3,-9.362795591E-2
4.073609583E-1,-1.061418562E-1,1.743459723E-2,-9.123410583E-2
4.173359583E-1,-8.852657089E-2,2.551778815E-2,-8.734044492E-2
4.273099583E-1,-5.864447580E-2,2.360275193E-2,-7.476717710E-2
4.372849583E-1,-1.196176326E-2,3.007886304E-2,-7.821118712E-2
4.472599583E-1,2.954630503E-2,2.690767131E-2,-8.000862122E-2
4.572349583E-1,6.682838044E-2,2.040113641E-2,-8.614702821E-2
4.672099583E-1,9.045863712E-2,2.400997396E-2,-7.446896911E-2
4.771839583E-1,1.034551703E-1,2.918850568E-2,-7.641375303E-2
4.871589583E-1,8.118553782E-2,3.582074658E-2,-8.015655577E-2
4.971339583E-1,5.433716093E-2,3.313758723E-2,-8.195457458E-2
5.071089583E-1,2.113683034E-2,1.940456073E-2,-7.387372255E-2
5.170839583E-1,-2.326206939E-2,1.729158713E-3,-7.686691225E-2
5.270579583E-1,-5.708592331E-2,-1.482398903E-2,-7.881345034E-2
5.370329583E-1,-7.326727036E-2,-2.499966089E-2,-8.719835758E-2
5.470079583E-1,-8.797648494E-2,-2.102615808E-2,-9.303738713E-2
5.569829583E-1,-8.862306822E-2,-3.969153939E-3,-8.989275455E-2
5.669579583E-1,-7.044387376E-2,2.230378384E-2,-8.854438663E-2
5.769319583E-1,-5.503828777E-2,4.994724501E-2,-8.494776428E-2
5.869069583E-1,-1.775917708E-2,6.888875194E-2,-7.955721617E-2
5.968819583E-1,3.801009944E-3,8.380899162E-2,-8.330060363E-2
6.068569583E-1,-1.411823924E-3,8.548695979E-2,-8.569562316E-2
6.168319583E-1,-3.500721068E-1,1.545590128E-1,-8.434725523E-2
6.268059583E-1,-5.775378954E-1,-9.334637593E-2,-8.972961724E-2
6.367809583E-1,-6.166185652E-1,-2.273429605E-1,-9.256902516E-2
6.467559583E-1,-3.537219388E-1,-1.508737138E-1,-7.849302292E-2
6.567309583E-1,1.472515555E-1,-9.687245711E-2,-8.686272740E-2
6.667059583E-1,4.921246562E-1,-1.004740405E-1,-1.077899122E-1
6.766799583E-1,3.312505408E-1,-2.838491735E-1,-2.204447079E-1
6.866549583E-1,-6.480630637E-1,-2.423672715E-2,-5.628412843E-1
6.966299583E-1,-1.290622143E0,3.228718097E-1,-8.315851629E-1
7.066049583E-1,-2.740242944E0,3.915086197E-1,-8.832920909E-1
7.165799583E-1,-2.148613624E0,3.893084404E-2,1.193065882E-1
7.265549583E-1,-7.838949979E-2,-1.880683459E-1,3.967137015E-1
7.365289583E-1,1.212265799E0,-2.717004318E-1,-4.950299549E-1
7.465039583E-1,9.882307546E-1,-1.271406329E-1,-1.169279993E0
7.564789583E-1,4.217392728E-1,1.504973815E-1,-2.526205323E0
7.664539583E-1,-2.139248431E-1,1.400917587E-1,-4.474291756E0
7.764289583E-1,-9.975186912E-1,4.417150243E-2,-5.577651994E0
7.864029583E-1,-1.164300212E0,-3.085514669E-1,-5.551827182E0
7.963778750E-1,-3.782723508E-1,-7.955683610E-1,-4.762332031E0
8.063528750E-1,1.199072580E0,-1.029498064E0,-3.882863435E0
8.163278750E-1,2.791698442E0,-7.954322670E-1,-3.395176413E0
8.263028750E-1,3.810940343E0,-3.433259913E-1,-3.295014194E0
8.362768750E-1,4.267756697E0,1.414400536E-1,-3.322018390E0
8.462518750E-1,4.516722661E0,4.874756446E-1,-3.362378211E0
8.562268750E-1,4.975380011E0,8.220056695E-1,-3.404641886E0
8.662018750E-1,5.585260976E0,1.178362912E0,-3.681625076E0
8.761768750E-1,6.009436126E0,1.384126431E0,-4.072383973E0
8.861508750E-1,6.182437695E0,1.274133872E0,-4.251749652E0
8.961258750E-1,6.232247787E0,8.091090506E-1,-3.998985629E0
9.061008750E-1,6.626802111E0,1.739154893E-1,-3.380953061E0
9.160758750E-1,7.470319102E0,-8.484309912E-2,-2.607619615E0
9.260508750E-1,8.094985921E0,2.404082716E-1,-1.752084256E0
9.360258750E-1,8.298746184E0,5.759425557E-1,-1.026055369E0
9.459998750E-1,7.956529702E0,5.831203052E-1,-4.962754118E-1
9.559748750E-1,7.188922434E0,4.943630800E-1,-1.754497987E-1
9.659498750E-1,6.235642095E0,1.773580375E-1,-8.800234973E-2
9.759248750E-1,5.294143311E0,-1.418148601E-1,-1.444963932E-1
9.858998750E-1,4.405170358E0,-4.235290325E-1,-1.867857957E-1
9.958738750E-1,3.696410638E0,-7.959592474E-1,-1.399367344E-1
1.005848875E0,3.263077579E0,-1.088841602E0,-7.652251124E-3
1.015823875E0,3.225869699E0,-1.330069068E0,2.511770886E-1
1.025798875E0,3.824568741E0,-1.739480583E0,5.721763641E-1
1.035773875E0,4.387740685E0,-1.875883845E0,1.110901977E0
1.045748875E0,4.664350823E0,-1.924189448E0,1.798950859E0
1.055722875E0,4.841897141E0,-2.020911165E0,2.485957768E0
1.065697875E0,4.816296277E0,-2.253076032E0,3.073394780E0
1.075672875E0,4.380212395E0,-2.638388248E0,3.461578563E0
1.085647875E0,3.641542997E0,-3.037841370E0,3.659776370E0
1.095622875E0,2.886986715E0,-3.384326320E0,3.723040320E0
1.105596875E0,2.421008358E0,-3.719022113E0,3.622596849E0
1.115571875E0,2.201450819E0,-3.980769798E0,3.395138406E0
1.125546875E0,2.161588742E0,-3.965814959E0,3.260323833E0
1.135521875E0,2.229725761E0,-3.866067308E0,3.343394056E0
1.145496875E0,2.478118114E0,-4.010128668E0,3.405153517E0
1.155470875E0,2.797051860E0,-4.248527251E0,3.439096604E0
1.165445875E0,2.883642107E0,-4.481416004E0,3.427308617E0
1.175420875E0,2.544614112E0,-4.668137480E0,3.207654453E0
1.185395875E0,1.886260168E0,-4.658460923E0,2.798459285E0
1.195370875E0,1.064099401E0,-4.522315523E0,2.397397594E0
1.205345875E0,1.307096820E-1,-4.471807274E0,2.066016002E0
1.215319875E0,-5.313306391E-1,-4.641499320E0,1.634835303E0
1.225294875E0,-9.228799336E-1,-4.903887275E0,1.157254609E0
1.235269875E0,-1.294773666E0,-5.001390181E0,8.164706951E-1
1.245244875E0,-1.728475392E0,-4.904257404E0,5.983502555E-1
1.255219875E0,-2.074762998E0,-4.651247213E0,3.455242521E-1
1.265193875E0,-2.430509791E0,-4.318151218E0,8.445016623E-2
1.275168875E0,-2.609222921E0,-4.100890903E0,-1.028770816E-1
1.285143875E0,-2.303802821E0,-3.971411914E0,-4.634269238E-2
1.295118875E0,-1.495697445E0,-3.815748509E0,1.427492452E-1
1.305093875E0,-1.254500822E0,-3.762611352E0,4.221759868E-1
1.315067875E0,-1.809577004E0,-3.867954204E0,6.449379462E-1
1.325042875E0,-2.760855549E0,-4.075452592E0,5.678950328E-1
1.335017875E0,-3.809369196E0,-4.055357466E0,3.138440377E-1
1.344992875E0,-4.658824035E0,-3.920503131E0,-6.169923484E-2
1.354967875E0,-4.906540157E0,-3.998060015E0,-4.588508928E-1
1.364942875E0,-4.616148716E0,-3.981044033E0,-7.689667457E-1
1.374916875E0,-4.188203866E0,-3.547661857E0,-9.124813914E-1
1.384891875E0,-3.543885725E0,-3.128819953E0,-9.245289946E-1
1.394866875E0,-2.737352373E0,-3.106839100E0,-7.903517675E-1
1.404841875E0,-1.895854718E0,-3.183924698E0,-7.798794043E-1
1.414816875E0,-1.462200793E0,-3.060172764E0,-9.308773166E-1
1.424790875E0,-1.659917227E0,-2.890835060E0,-1.228477789E0
1.434765875E0,-1.933392673E0,-2.750367106E0,-1.637051983E0
1.444740875E0,-2.280265439E0,-2.720514731E0,-2.120820785E0
1.454715875E0,-3.219914895E0,-2.770906035E0,-5.460672013E0
1.464690875E0,-8.565638834E0,-1.586143200E0,-1.297223270E1
1.474665875E0,-7.954986037E0,-2.151662801E0,-1.076165072E1
1.484639875E0,-2.852007501E0,-3.401984911E0,-7.006261849E0
1.494614875E0,-2.663400590E0,-2.461821631E0,-2.013073558E0
1.504589875E0,-3.495174910E0,-2.015780234E0,-8.221185207E-1
1.514564875E0,-3.399083523E0,-1.482873185E0,-8.643342483E-1
1.524539875E0,-2.611052515E0,-8.513826656E-1,-7.016436589E-1
1.534513875E0,-1.746856992E0,-4.525060791E-1,-3.108075786E-1
1.544488875E0,-1.455145250E0,-3.444740921E-1,-1.183757114E-1
1.554463875E0,-1.494850914E0,-4.775263149E-1,-4.501221693E-1
1.564438875E0,-1.290430208E0,-5.684528571E-1,-8.486034840E-1
1.574413875E0,-1.101140343E0,-5.025237465E-1,-1.278661518E0
1.584388875E0,-1.083690789E0,-3.715168798E-1,-1.643947020E0
1.594362875E0,-9.363944569E-1,-1.886949116E-1,-1.825665618E0
1.604337875E0,-5.844177293E-1,-3.038856447E-2,-1.652942961E0
1.614312875E0,-1.887846664E-3,1.617462641E-1,-9.113025928E-1
1.624287875E0,9.473836409E-1,2.619447362E-1,5.088586199E-1
1.634262875E0,1.653815073E0,2.430664158E-1,1.550635983E0
1.644236875E0,1.859128795E0,3.372282225E-1,8.352373338E-1
1.654211875E0,1.643583761E0,3.665040618E-1,1.761929798E-1
1.664186875E0,1.479294982E0,2.399054110E-2,-1.043289453E-1
1.674161875E0,1.094600451E0,-1.907472843E-1,-7.097818136E-2
1.684136875E0,5.145144124E-1,-2.610998136E-1,8.815028429E-2
1.694111875E0,2.520377257E-1,-2.505689782E-1,-1.426568592E-1
1.704085875E0,1.726134606E-1,4.095039010E-2,-6.743441784E-1
1.714060875E0,8.551289767E-2,2.396522266E-1,-4.771398139E-1
1.724035875E0,1.536499169E-1,1.817028111E-1,8.541554153E-2
1.734010875E0,1.947408595E-1,1.632893443E-2,1.990304500E-1
1.743985875E0,7.916092113E-2,2.705623627E-2,-1.683857775E-1
1.753960875E0,-3.414861649E-2,1.141510981E-1,-7.268568528E-1
1.763934875E0,-9.040416665E-2,1.752118170E-2,-9.660699534E-1
1.773909875E0,-1.028150281E-1,-1.818741345E-1,-1.075968956E0
1.783884875E0,-1.540611955E-1,-4.420740616E-1,-1.528375048E0
1.793859458E0,-1.346973369E-1,-6.957104892E-1,-2.696632948E0
1.803834458E0,-2.284799516E-4,-4.246131063E-1,-3.684701296E0
1.813808458E0,3.394181144E-1,1.002341402E-1,-3.809816508E0
1.823783458E0,2.536730457E-1,2.144355243E-1,-3.511694464E0
1.833758458E0,-2.332846818E-1,2.345388365E-1,-3.255389367E0
1.843733458E0,-9.036925878E-1,3.562878066E-1,-3.698053413E0
1.853708458E0,-2.210196938E0,-1.357881349E-1,-3.850816015E0
1.863683458E0,-4.028966058E0,-6.202591878E-1,-4.379368642E0
1.873657458E0,-5.195634100E0,-9.992090482E-1,-5.507659653E0
1.883632458E0,-4.570531956E0,-1.227022417E0,-3.938096818E0
1.893607458E0,-5.258744853E0,-1.548921579E0,-3.247683907E0
1.903582458E0,-5.560253019E0,-1.347795487E0,-3.509040998E0
1.913557458E0,-3.491428599E0,-6.950187635E-1,-4.291077440E0
1.923531458E0,-8.582557753E-1,-4.330044454E-1,-5.797992622E0
1.933506458E0,5.136778951E-3,-6.463710988E-1,-7.699419444E0
1.943481458E0,-1.120056962E0,-5.765570980E-1,-8.266999311E0
1.953456458E0,-2.037657006E0,-1.378475243E0,-7.592264539E0
1.963431458E0,-3.179940990E0,-2.285747935E0,-6.846597193E0
1.973406458E0,-4.441449700E0,-3.068214732E0,-5.943073736E0
1.983380458E0,-5.287616065E0,-3.937985721E0,-4.716374670E0
1.993355458E0,-6.275425381E0,-4.194832855E0,-3.270067048E0
2.003330458E0,-6.984261115E0,-4.568813167E0,-2.019145891E0
2.013305458E0,-6.978613290E0,-5.183214614E0,-1.190543393E0
2.023280458E0,-6.524588689E0,-5.810959992E0,-5.747380292E-1
2.033254458E0,-6.166311074E0,-6.058527009E0,-2.705109072E-1
2.043229458E0,-5.561921230E0,-5.500536575E0,1.825370334E0
2.053204458E0,-4.223756984E0,-4.889018975E0,5.153561629E0
2.063179458E0,-2.880453913E0,-4.816581913E0,4.745182148E0
2.073154458E0,-3.446358261E0,-3.678436005E0,6.011356351E0
2.083129458E0,-3.535403754E0,-2.857018565E0,6.364160387E0
2.093103458E0,-2.823871284E0,-2.516888369E0,6.255943043E0
2.103078458E0,-2.117071989E0,-2.279191159E0,5.843012674E0
2.113053458E0,-1.583323380E0,-2.036799805E0,5.386510023E0
2.123028458E0,-1.251780405E0,-1.696201539E0,4.909005927E0
2.133003458E0,-9.429107402E-1,-1.679648949E0,3.940550310E0
2.142978458E0,-1.055538054E0,-1.654498905E0,2.939539150E0
2.152952458E0,-1.296666849E0,-1.506505877E0,2.071098402E0
2.162927458E0,-1.536585416E0,-1.465236229E0,1.173634415E0
2.172902458E0,-1.505435836E0,-1.521412184E0,5.770669752E-1
2.182877458E0,-1.078971794E0,-1.718266300E0,3.323838043E-1
2.192852458E0,-9.159528834E-1,-1.480419694E0,-1.679411552E0
2.202826458E0,-2.384164468E0,-1.817513430E-1,-5.151516858E0
2.212801458E0,-3.606536887E0,1.243094074E0,-4.055552178E0
2.222776458E0,-1.712954397E0,5.934035110E-1,-1.434251248E0
2.232751458E0,-3.135411519E-1,-7.670114368E-1,4.454935133E-2
2.242726458E0,-4.430259883E-1,-7.743871146E-1,3.397758543E-1
2.252701458E0,-8.131392440E-1,-3.067776775E-1,3.041405833E-1
2.262675458E0,-7.753823107E-1,3.437051833E-2,3.426994622E-1
2.272650458E0,-5.159109467E-1,5.723254681E-3,3.181528509E-1
2.282625458E0,-5.717872319E-1,-1.255291951E-1,5.438261390E-1
2.292600458E0,-7.926985475E-1,-1.418417573E-1,9.964240193E-1
2.302575458E0,-1.111670301E0,-4.567552507E-2,1.478811709E0
2.312550458E0,-1.232722283E0,6.343059540E-3,1.796690910E0
2.322524458E0,-8.576175517E-1,-2.423828763E-1,1.741823562E0
2.332499458E0,-4.102081981E-1,-6.430621594E-1,1.432511702E0
2.342474458E0,4.539310455E-2,-1.224150850E0,4.986423647E-1
2.352449458E0,-2.071376145E-1,-1.817069042E-1,2.427038884E-1
2.362424458E0,1.179734230E-1,3.861542147E-1,7.319076777E-2
2.372398458E0,4.480370522E-1,6.480819941E-2,-8.168911099E-2
2.382373458E0,1.237551498E-1,2.011325240E-2,-3.032366037E-2
2.392348458E0,1.590811032E-1,-1.513563466E-1,-3.110256797E-1
2.402323458E0,-5.515561581E-2,-1.272219640E-1,-5.488126445E-1
2.412298458E0,-5.412024933E-1,1.292620575E-1,-5.634324378E-1
2.422273458E0,-5.967007560E-1,2.691672170E-1,-3.466042328E-1
2.432247458E0,-2.075577369E-1,1.278984869E-1,-1.045131326E-1
2.442222458E0,1.911094462E-1,-3.423252404E-2,4.116732180E-2
2.452197458E0,3.537760621E-1,-3.910617828E-2,5.441828191E-2
2.462172458E0,3.436709040E-1,-7.087994814E-3,-3.857817471E-2
2.472147458E0,2.726825631E-1,9.845892549E-2,-1.558809221E-1
2.482121458E0,1.897760618E-1,1.660281801E-1,-1.493086517E-1
2.492096458E0,8.150813967E-2,1.180301410E-1,-1.798837423E-2
2.502071458E0,-8.290211588E-2,3.932310998E-2,2.467595172E-1
2.512046458E0,-3.675928134E-1,-9.018745422E-3,4.165872180E-1
2.522021458E0,-6.903351438E-1,-3.428982675E-2,5.015437531E-1
2.531996458E0,-9.274318448E-1,-9.370455444E-2,6.540262735E-1
2.541970458E0,-1.120990178E0,-1.883259523E-1,8.752568471E-1
2.551945458E0,-1.303355479E0,-2.263433790E-1,1.334920503E0
2.561920458E0,-1.427444066E0,-3.078424555E-1,2.052175058E0
2.571895458E0,-1.472292210E0,-5.606953561E-1,2.689544368E0
2.581870458E0,-1.674844877E0,-7.895208782E-1,3.083594663E0
2.591845458E0,-2.193964483E0,-1.048848401E0,3.213496406E0
2.601819458E0,-2.771843929E0,-1.506318181E0,3.124554409E0
2.611794458E0,-3.328798821E0,-1.908831151E0,3.069289450E0
2.621769458E0,-3.668223842E0,-2.331466144E0,2.758576889E0
2.631744458E0,-3.901057631E0,-2.471903400E0,2.493212408E0
2.641719458E0,-3.923224425E0,-2.387445048E0,2.615313381E0
2.651694458E0,-3.538144929E0,-2.252553291E0,2.701694590E0
2.661668458E0,-3.413102807E0,-1.970965419E0,2.627656268E0
2.671643458E0,-2.955665771E0,-1.435038868E0,2.020376145E0
2.681618458E0,-2.324155371E0,-9.000671679E-1,1.278818808E0
2.691593458E0,-1.878646654E0,-5.714975023E-1,5.489559013E-1
2.701568458E0,-1.492250365E0,-6.210503161E-2,-4.157838472E-1
2.711542458E0,-1.029046805E0,2.924748033E-1,-1.325840362E0
2.721517458E0,-3.227721512E-2,7.159564734E-2,-1.335619830E0
2.731492458E0,7.257511443E-1,-3.017017096E-1,-7.717166913E-1
2.741467458E0,1.123804443E0,-8.534315300E-1,-1.618728563E-2
2.751442458E0,1.364000461E0,-1.004005519E0,4.229975206E-1
2.761417458E0,1.284670116E0,-5.199022561E-1,-4.887041447E-1
2.771391458E0,2.058193597E-1,-8.631981343E-1,4.721079925E-1
2.781366458E0,2.192460287E-1,-1.162173287E0,4.441229260E-1
2.791341458E0,5.942303073E-1,-1.103038641E0,-3.952624226E-1
2.801316958E0,6.396365681E-1,-1.458222494E0,2.268099868E-1
2.811291958E0,1.034359585E0,-1.983493663E0,3.824131662E-1
2.821266958E0,7.984405133E-1,-2.688257981E0,1.181191941E0
2.831240958E0,-5.588119680E-1,-2.740514547E0,1.514194381E0
2.841215958E0,-3.116475311E0,-8.237288439E-1,1.041274502E0
2.851190958E0,-3.837345200E0,3.879592502E-1,2.769498610E-1
2.861165958E0,-3.226804084E0,-3.211963266E-1,-1.260413527E0
2.871140958E0,-2.848470520E0,-6.329318583E-1,-2.236127878E0
2.881115958E0,-2.925615760E0,-5.662174666E-1,-3.611712257E0
2.891089958E0,-4.786317310E0,-1.510598928E-1,-6.544778540E0
2.901064958E0,-6.472142088E0,2.418098491E-1,-8.223769092E0
2.911039958E0,-4.319994260E0,-1.005672560E0,-4.986924169E0
2.921014958E0,-2.650935496E0,-2.383655468E0,-9.887916487E-1
2.930989958E0,-2.315102565E0,-1.738573680E0,-1.244527227E-1
2.940963958E0,-1.612473358E0,-5.713127303E-1,-1.542641670E-1
2.950938958E0,-5.803748913E-1,-1.696604705E-1,-2.147255462E-1
2.960913958E0,2.191824402E-1,-2.802441823E-1,7.211429536E-2
2.970888958E0,1.944345385E-3,-5.137422144E-1,1.397554708E-1
2.980863958E0,-5.110732529E-1,-6.228085738E-1,1.817349708E-1
2.990838958E0,-6.473157164E-1,-7.845168310E-1,-2.956130040E-1
3.000812958E0,-6.778788203E-1,-7.290729475E-1,-8.642558956E-1
3.010787958E0,-8.782070598E-1,-5.868657392E-1,-1.122286506E0
3.020762958E0,-1.155593123E0,-4.064873224E-1,-1.625038294E0
3.030737958E0,-1.670499226E0,-1.220015699E-1,-2.557554000E0
3.040712958E0,-2.047424195E0,8.486648798E-2,-3.561570629E0
3.050687958E0,-1.644444471E0,-3.780277544E-1,-4.414053741E0
3.060661958E0,-1.910721117E0,-6.052599102E-1,-5.012215716E0
3.070636958E0,-2.955524268E0,-5.166938889E-1,-4.956840245E0
3.080611958E0,-4.185248684E0,-9.752933514E-1,-4.495308988E0
3.090586958E0,-4.990874548E0,-1.483556140E0,-4.043998080E0
3.100561958E0,-5.421986834E0,-1.223026430E0,-3.917469011E0
3.110536958E0,-4.801311032E0,-9.907247382E-1,-4.287989525E0
3.120510958E0,-3.523668100E0,-1.138623626E0,-5.351048999E0
3.130485958E0,-3.149603296E0,-1.249283352E0,-6.658446658E0
3.140460958E0,-3.231337430E0,-1.481894946E0,-7.392887349E0
3.150435958E0,-3.706947028E0,-2.061783788E0,-7.467832282E0
3.160410958E0,-4.061814546E0,-2.785684873E0,-7.018395406E0
3.170385958E0,-3.184994153E0,-2.813272621E0,-5.647380626E0
3.180359958E0,-2.806695673E0,-2.821452291E0,-3.487892496E0
3.190334958E0,-3.350995436E0,-3.160785511E0,-1.169182929E0
3.200309958E0,-4.302360227E0,-3.583833318E0,6.476188946E-1
3.210284958E0,-5.654788463E0,-3.249926314E0,4.003773329E0
3.220259958E0,-5.665401160E0,-2.005059364E0,6.728538986E0
3.230233958E0,-4.070065844E0,-2.685202226E0,5.963980456E0
3.240208958E0,-3.621275963E0,-3.430663165E0,7.212746914E0
3.250183958E0,-2.208472887E0,-3.326653478E0,8.138495053E0
3.260158958E0,-1.050783244E0,-3.135471160E0,8.147314993E0
3.270133958E0,-1.383236046E0,-3.635383540E0,6.796732138E0
3.280108958E0,-2.600582491E0,-3.786035882E0,5.034069099E0
3.290082958E0,-3.432905864E0,-3.268971865E0,2.814028666E0
3.300057958E0,-3.471881357E0,-2.127720500E0,4.985780454E-1
3.310032958E0,-2.795525737E0,-9.391885489E-1,-9.093057686E-1
3.320007958E0,-1.578652624E0,-5.628974175E-1,-1.608469623E0
3.329982958E0,-9.188656738E-1,-2.576885480E-1,-1.506378407E0
