"Time (s)","X (rad/s)","Y (rad/s)","Z (rad/s)"
1.293700002E-2,-3.376408815E-1,5.442747474E-2,1.781813651E-1
2.291200007E-2,-3.492847681E-1,5.855403841E-2,2.024283707E-1
3.288600012E-2,-3.110390604E-1,8.363999426E-2,2.156750560E-1
4.286099994E-2,-2.432783991E-1,9.664980322E-2,2.072227150E-1
5.283599999E-2,-1.697493941E-1,9.577455372E-2,1.870748848E-1
6.281000003E-2,-1.143974587E-1,1.182756051E-1,1.761852205E-1
7.278500008E-2,-8.656379580E-2,9.980490804E-2,1.725350469E-1
8.276000014E-2,-6.277057528E-2,9.460534155E-2,1.917838305E-1
9.273499995E-2,-4.815728217E-2,8.260993659E-2,2.184359580E-1
1.027090000E-1,-5.814919621E-2,5.282061175E-2,2.729532719E-1
1.126840001E-1,-6.622731686E-2,2.883795649E-2,3.357977569E-1
1.226590001E-1,-7.601842284E-2,-1.252568327E-3,3.775023222E-1
1.326329999E-1,-8.865225315E-2,-2.806345373E-2,4.083724320E-1
1.426080000E-1,-1.141163334E-1,-3.572137654E-2,4.287727773E-1
1.525830000E-1,-1.505951583E-1,-2.983405814E-2,4.315618575E-1
1.625580001E-1,-1.688165069E-1,-6.955640391E-3,4.168582857E-1
1.725320001E-1,-1.495847553E-1,2.072246559E-2,3.812256157E-1
1.825069999E-1,-1.067762971E-1,4.297877103E-2,3.264039159E-1
1.924820000E-1,-5.376325920E-2,5.875626206E-2,2.699187994E-1
2.024570000E-1,-1.169356983E-2,7.585481554E-2,2.125939578E-1
2.124310001E-1,3.541179374E-2,9.352941811E-2,1.448630095E-1
2.224060001E-1,8.254201710E-2,1.074228659E-1,8.133703470E-2
2.323810000E-1,1.116309389E-1,1.032681987E-1,3.539741039E-2
2.423550000E-1,1.396596581E-1,6.914405525E-2,4.253681004E-2
2.523300000E-1,1.604131162E-1,3.233175725E-2,7.886169106E-2
2.623050001E-1,1.627668142E-1,-2.171355300E-3,1.142489761E-1
2.722799999E-1,1.441167891E-1,-2.373111248E-2,1.420182437E-1
2.822540000E-1,1.089670584E-1,-7.120177150E-3,1.512346417E-1
2.922290000E-1,6.613916904E-2,8.101120591E-3,1.233337596E-1
3.022040001E-1,3.924363479E-2,2.242866158E-2,8.260949701E-2
3.121780001E-1,3.143950924E-2,2.956513315E-2,4.523735866E-2
3.221529999E-1,5.071227252E-2,2.568490803E-2,1.693221927E-2
3.321280000E-1,8.958183974E-2,1.897396147E-2,5.309442058E-4
3.421030000E-1,1.215751991E-1,1.612384990E-2,-1.064075064E-2
3.520770001E-1,1.401640624E-1,5.819812417E-3,-6.363196298E-4
3.620520001E-1,1.500912607E-1,-3.742801026E-3,4.130206071E-3
3.720269999E-1,1.419374943E-1,-6.342805922E-3,2.135351859E-2
3.820006666E-1,1.191946343E-1,-1.660050265E-2,4.287452251E-2
3.919756666E-1,7.251814008E-2,-2.253562026E-2,6.305219233E-2
4.019506667E-1,2.415060624E-2,-1.996034384E-2,7.545106858E-2
4.119256667E-1,-5.565927364E-3,-1.874455065E-2,7.319484651E-2
4.218996668E-1,-6.513745990E-3,-5.945132114E-3,4.825034738E-2
4.318746666E-1,5.432589445E-3,9.270465001E-3,1.075953338E-2
4.418496666E-1,2.780021168E-2,3.638570756E-2,-1.759674028E-2
4.518236667E-1,3.799913824E-2,5.726201087E-2,-4.162430391E-2
4.617986667E-1,4.153421894E-2,7.032348216E-2,-5.202075094E-2
4.717736668E-1,4.411698878E-2,6.343251467E-2,-5.936396495E-2
4.817486666E-1,4.348928109E-2,5.131992325E-2,-5.032919347E-2
4.917226667E-1,3.089603037E-2,3.524858132E-2,-3.688224405E-2
5.016976667E-1,2.057255246E-2,1.421813108E-2,-2.998891659E-2
5.116726668E-1,1.526379399E-2,5.722515285E-3,-1.926427335E-2
5.216476666E-1,2.147215419E-2,1.383716613E-2,1.034606248E-3
5.316216666E-1,2.821944468E-2,1.717321947E-2,1.704495214E-2
5.415966667E-1,2.869641595E-2,2.307078987E-2,2.083063684E-2
5.515716667E-1,1.491366141E-2,3.322462365E-2,9.305817075E-4
5.615456668E-1,-1.522303326E-3,5.718880892E-2,-2.930615097E-2
5.715206666E-1,-1.689839177E-2,8.601429313E-2,-5.369504541E-2
5.814956666E-1,-2.649988607E-2,1.008640751E-1,-7.544108480E-2
5.914706667E-1,-3.172159195E-2,9.538152069E-2,-7.895914465E-2
6.014446667E-1,-3.056551516E-2,7.615376264E-2,-6.624814123E-2
6.114196668E-1,-1.992233843E-2,5.591542274E-2,-5.833522975E-2
6.213946666E-1,-1.013149135E-2,4.847322404E-2,-5.146560818E-2
6.313686667E-1,2.065907232E-3,5.373837799E-2,-4.156491533E-2
6.413436667E-1,1.759746112E-2,5.600100011E-2,-4.187623784E-2
6.513186668E-1,2.987676486E-2,6.097579002E-2,-6.082089990E-2
6.612936666E-1,4.083244130E-2,6.729178131E-2,-7.868529856E-2
6.712676666E-1,3.940759972E-2,7.363906503E-2,-7.205438614E-2
6.812426667E-1,3.974661976E-2,5.921405554E-2,-3.958113492E-2
6.912176667E-1,3.043362126E-2,4.506273195E-2,1.138169551E-3
7.011916668E-1,1.556705683E-2,2.480326593E-2,2.745259739E-2
7.111666666E-1,2.922306769E-3,1.042747684E-2,4.185610637E-2
7.211416666E-1,-1.632315689E-4,9.808026254E-3,4.642982036E-2
7.311166667E-1,-2.325708047E-3,9.365096688E-3,3.237242624E-2
7.410906667E-1,-1.117406040E-2,1.315557398E-2,1.744194701E-2
7.510656668E-1,-2.108551003E-2,2.051756904E-2,1.151899714E-2
7.610406666E-1,-2.892958373E-2,1.835002378E-2,1.882591285E-2
7.710156667E-1,-1.593643427E-2,5.570136011E-3,2.465117164E-2
7.809896667E-1,6.956632249E-3,4.256397486E-3,2.527887933E-2
7.909646668E-1,7.385716774E-3,5.883416161E-3,1.757391356E-2
8.009396666E-1,4.777431022E-4,2.244827896E-2,1.412804890E-2
8.109136666E-1,7.358091883E-3,3.937745839E-2,3.512192052E-3
8.208886667E-1,3.004343063E-2,5.154677480E-2,-1.157727931E-2
8.308636667E-1,5.253877491E-2,5.403181165E-2,-3.241513669E-2
8.408386668E-1,4.688248783E-2,6.025855243E-2,-3.264709935E-2
8.508126666E-1,2.857965976E-2,6.675128639E-2,-1.108950377E-2
8.607876666E-1,2.161229774E-2,6.702718884E-2,7.697232999E-3
8.707626667E-1,3.312653303E-2,6.521841884E-2,1.910321787E-2
8.807366667E-1,5.119501799E-2,6.037199497E-2,3.596208990E-2
8.907116668E-1,5.392619595E-2,4.239002988E-2,4.861738533E-2
9.006866666E-1,3.632003814E-2,3.915615007E-2,6.087618321E-2
9.106616667E-1,8.588654920E-3,4.144446924E-2,6.601370871E-2
9.206356667E-1,-1.807305031E-2,5.173199624E-2,7.100447267E-2
9.306106667E-1,-3.899316117E-2,6.018660218E-2,5.787796155E-2
9.405856668E-1,-5.871173739E-2,6.419625133E-2,4.127927870E-2
9.505606666E-1,-7.935260236E-2,7.975821197E-2,2.869538963E-2
9.605346667E-1,-9.033654630E-2,8.435828984E-2,2.143721096E-2
9.705096667E-1,-8.245372027E-2,7.893525064E-2,2.110062353E-2
9.804846668E-1,-7.749731094E-2,7.907214016E-2,2.113817260E-2
9.904586666E-1,-7.475320995E-2,6.084825844E-2,3.068463132E-2
1.000433667E0,-7.638732344E-2,4.742752761E-2,4.811901599E-2
1.010408667E0,-9.035597742E-2,2.419442311E-2,7.087231427E-2
1.020383667E0,-1.032342240E-1,1.722120121E-2,8.684542030E-2
1.030357667E0,-1.165697277E-1,2.459198609E-2,8.093916625E-2
1.040332667E0,-1.168088838E-1,3.564010933E-2,5.486255512E-2
1.050307667E0,-1.005293131E-1,5.194345117E-2,2.916035615E-2
1.060282667E0,-7.910791039E-2,6.951365620E-2,2.004462108E-2
1.070256667E0,-6.516034156E-2,7.094674557E-2,8.091219701E-3
1.080231667E0,-5.120857060E-2,7.400245965E-2,3.703129478E-3
1.090206667E0,-4.008866474E-2,6.322668493E-2,-6.144569255E-3
1.100180667E0,-3.387604281E-2,2.696668357E-2,-5.576516502E-3
1.110155667E0,-4.178264365E-2,-3.406624310E-3,1.389538310E-2
1.120130667E0,-5.972595513E-2,-3.358583152E-2,4.212515801E-2
1.130105667E0,-7.383305579E-2,-3.750751168E-2,6.029020622E-2
1.140079667E0,-8.386278898E-2,-4.593934864E-2,6.781923026E-2
1.150054667E0,-1.005166247E-1,-5.619420856E-2,7.786706090E-2
1.160029667E0,-1.039057672E-1,-5.583734065E-2,8.088042587E-2
1.170003667E0,-9.711080790E-2,-5.794185773E-2,6.937019527E-2
1.179978667E0,-7.751207054E-2,-5.848700553E-2,5.084391683E-2
1.189953667E0,-5.594323575E-2,-4.340166599E-2,4.300567880E-2
1.199928667E0,-3.448055685E-2,-3.825537488E-2,3.505774215E-2
1.209902667E0,-2.901826799E-2,-4.385270923E-2,2.363777906E-2
1.219877667E0,-2.766112052E-2,-4.628524184E-2,1.158191543E-2
1.229852667E0,-2.669923566E-2,-5.031549931E-2,-8.994822390E-3
1.239826667E0,-2.463661693E-2,-4.490342364E-2,-3.682885319E-2
1.249801667E0,-1.295566466E-2,-4.461602122E-2,-5.702899396E-2
1.259776667E0,-1.013251953E-3,-4.947256297E-2,-6.797485799E-2
1.269751667E0,6.107810885E-3,-5.263670906E-2,-6.825616211E-2
1.279725667E0,1.280246582E-2,-6.226616725E-2,-5.515155196E-2
1.289700667E0,2.716390789E-2,-7.499025762E-2,-4.675925896E-2
1.299675667E0,4.140063375E-2,-8.196188509E-2,-3.318352997E-2
1.309650667E0,4.333744571E-2,-7.754765451E-2,-2.420143783E-2
1.319624667E0,2.958354913E-2,-7.767096162E-2,-1.846898347E-2
1.329599667E0,8.877038024E-3,-6.911270320E-2,-1.884697005E-2
1.339574667E0,-7.724042982E-3,-6.417733431E-2,-1.169478521E-2
1.349548667E0,-8.189503103E-3,-6.777220964E-2,5.847587716E-3
1.359523667E0,1.479890291E-2,-7.565543056E-2,2.042067051E-2
1.369498667E0,5.020052195E-2,-8.655645698E-2,1.908320934E-2
1.379473000E0,8.402612805E-2,-9.006384015E-2,7.394328248E-3
1.389447000E0,9.720060229E-2,-8.657550067E-2,-1.274961326E-2
1.399422000E0,9.054935724E-2,-7.254250348E-2,-2.792537212E-2
1.409397000E0,8.158852160E-2,-5.758973584E-2,-3.890589997E-2
1.419372000E0,7.160646468E-2,-4.979679361E-2,-4.273259640E-2
1.429346000E0,6.852634996E-2,-4.931068793E-2,-3.117016703E-2
1.439321000E0,7.754780352E-2,-5.611160398E-2,-5.636043847E-3
1.449296000E0,8.928033710E-2,-6.890462339E-2,1.942634955E-2
1.459270000E0,1.059093848E-1,-7.141625881E-2,2.432975918E-2
1.469245000E0,1.064413935E-1,-6.490708888E-2,1.674300618E-2
1.479220000E0,8.461040258E-2,-4.814675450E-2,-6.408652291E-3
1.489195000E0,5.611865595E-2,-2.870474383E-2,-2.661198378E-2
1.499169000E0,3.359310701E-2,-1.543634292E-2,-3.530294448E-2
1.509144000E0,3.175769374E-2,-1.166322269E-2,-3.157832846E-2
1.519119000E0,3.728321940E-2,-1.633493975E-2,-2.181730792E-2
1.529094000E0,3.979275376E-2,-3.183085471E-2,-1.239141915E-3
1.539068000E0,3.507868946E-2,-5.109829456E-2,1.692548022E-2
1.549043000E0,2.480925433E-2,-5.255832523E-2,3.365251794E-2
1.559018000E0,2.334185131E-2,-5.131036788E-2,3.341682628E-2
1.568992000E0,2.942566201E-2,-4.054901004E-2,2.156576887E-2
1.578967000E0,3.667638451E-2,-3.689275682E-2,8.672608063E-3
1.588942000E0,3.364042938E-2,-3.716636077E-2,5.244612694E-3
1.598917000E0,6.735045929E-3,-3.665769845E-2,1.587568596E-2
1.608891000E0,-7.408064604E-1,1.612837054E-2,1.099961102E-1
1.618866000E0,-7.791426182E-1,-6.105829030E-2,2.113488168E-1
1.628841000E0,-6.847434044E-1,9.560665116E-3,2.335774451E-1
1.638816000E0,-5.731824636E-1,-3.092843853E-2,2.114974409E-1
1.648790000E0,-4.853820503E-1,3.470401838E-2,1.368112415E-1
1.658765000E0,-4.899866581E-1,8.179243654E-2,2.608233877E-2
1.668740000E0,-6.635068655E-1,5.340903252E-2,-3.762087598E-2
1.678714000E0,-5.948185921E-1,-9.914590716E-1,3.240002319E-2
1.688689000E0,-5.070620179E-1,1.550622880E-1,1.243308708E-1
1.698664000E0,-1.164799333E-1,-3.208914399E-1,1.243971810E-1
1.708639000E0,-1.965044066E-2,-3.476665355E-3,1.656894386E-1
1.718613000E0,8.963104337E-2,-1.038773060E-1,6.210232526E-2
1.728588000E0,7.158125937E-2,-7.866618037E-2,-8.107353747E-2
1.738563000E0,4.545858130E-2,-2.646343037E-2,-2.077396065E-1
1.748538000E0,8.768089861E-2,-1.784854755E-2,-2.480050027E-1
1.758512000E0,1.678857058E-1,-1.793696545E-2,-2.155146897E-1
1.768487000E0,2.010378391E-1,-3.538035601E-2,-1.622891724E-1
1.778462000E0,1.658518910E-1,-6.364688277E-2,-1.183512807E-1
1.788436000E0,1.189545542E-1,-6.256483495E-2,-1.002378538E-1
1.798411000E0,9.167792648E-2,-4.071813077E-2,-1.027265787E-1
1.808386000E0,7.504709810E-2,-1.985692605E-2,-9.299464524E-2
1.818361000E0,5.499695987E-2,-1.012733299E-2,-7.534348220E-2
1.828335000E0,5.319837108E-2,-1.060541533E-2,-5.863432586E-2
1.838310000E0,6.158333272E-2,-1.891527697E-2,-5.044803396E-2
1.848285000E0,6.697971374E-2,-1.616330072E-2,-4.523579031E-2
1.858259000E0,5.968344584E-2,-1.562747173E-2,-3.226486221E-2
1.868234000E0,4.843829572E-2,-2.406898327E-2,-1.426826417E-2
1.878209000E0,3.810070455E-2,-2.297415771E-2,4.909425508E-3
1.888184000E0,3.625690565E-2,-9.625630453E-3,1.118008699E-2
1.898158000E0,4.349085316E-2,-8.941197768E-3,1.412580907E-2
1.908133000E0,4.682581872E-2,-2.129609510E-2,2.104341984E-2
1.918108000E0,4.880561307E-2,-2.069315687E-2,2.423042431E-2
1.928083000E0,4.240450263E-2,-6.713912822E-3,6.391171366E-3
1.938057000E0,3.855170682E-2,-1.069187652E-2,-7.635698188E-3
1.948032000E0,3.830733523E-2,1.373268664E-3,-1.496316865E-2
1.958007000E0,3.832278028E-2,1.570187509E-2,-2.358115837E-2
1.967982000E0,3.917765990E-2,2.197831497E-2,-2.536939643E-2
1.977956000E0,3.791692108E-2,2.539302036E-2,-2.780405618E-2
1.987931000E0,3.960756958E-2,2.498387545E-2,-3.286795318E-2
1.997906000E0,4.872463644E-2,2.687525004E-2,-4.150485247E-2
2.007880000E0,6.740824133E-2,1.430109143E-2,-3.978065401E-2
2.017855000E0,7.391887158E-2,6.926799193E-3,-2.201390639E-2
2.027830000E0,7.493417710E-2,3.544297069E-4,-5.482986569E-3
2.037805000E0,7.513657957E-2,2.963261679E-3,8.598642889E-4
2.047779000E0,7.497170568E-2,1.994881034E-2,-4.782051779E-3
2.057754000E0,7.144860923E-2,4.112387076E-2,-2.252696082E-2
2.067729000E0,6.722742319E-2,5.229103565E-2,-3.819809854E-2
2.077704000E0,6.555016339E-2,6.461135298E-2,-4.603018984E-2
2.087678000E0,6.792577356E-2,7.741933316E-2,-5.151104182E-2
2.097653000E0,7.142782956E-2,9.532909095E-2,-6.466972083E-2
2.107628000E0,7.797817886E-2,1.136086881E-1,-7.923425734E-2
2.117602000E0,7.418797165E-2,1.113473922E-1,-7.789468765E-2
2.127577000E0,5.672793463E-2,8.141582459E-2,-5.224714056E-2
2.137552000E0,3.994149715E-2,5.742739886E-2,-2.143463120E-2
2.147527000E0,4.306815565E-2,5.038642883E-2,-7.091184147E-3
2.157501000E0,3.890084103E-2,3.518271074E-2,-8.146061562E-3
2.167476000E0,3.926715627E-2,2.309591323E-2,-1.423774287E-2
2.177451000E0,5.103885755E-2,1.776080206E-2,-3.383381665E-2
2.187426000E0,5.411865935E-2,2.212909609E-2,-4.404218867E-2
2.197400000E0,4.524980113E-2,2.940112352E-2,-4.868727177E-2
2.207375000E0,2.981393598E-2,3.322901949E-2,-5.585336313E-2
2.217350000E0,1.352817379E-2,4.085418209E-2,-6.134853140E-2
2.227324000E0,1.037209854E-2,3.594646230E-2,-7.480822504E-2
2.237299000E0,1.496125851E-2,2.234064043E-2,-7.470969111E-2
2.247274000E0,1.357201673E-2,7.610743865E-3,-5.645775422E-2
2.257249000E0,1.710363477E-2,1.145921648E-3,-4.197867960E-2
2.267223000E0,2.703126147E-2,-1.133281179E-2,-3.766004741E-2
2.277198000E0,3.222442418E-2,-1.967622899E-2,-3.145488352E-2
2.287173000E0,3.034240566E-2,-1.974365301E-2,-2.498534508E-2
2.297147000E0,2.767951228E-2,-1.913085952E-2,-2.184734307E-2
2.307122000E0,6.732464302E-3,-2.118664049E-2,-2.352937311E-2
2.317097000E0,-8.047280833E-3,-1.368158590E-2,-1.822595671E-2
2.327072000E0,-1.486620679E-2,-1.382060628E-2,-2.797080670E-3
2.337046000E0,-7.913758047E-3,7.689213380E-3,4.700250458E-3
2.347021000E0,4.398782272E-3,2.042703331E-2,4.427444655E-3
2.356996000E0,1.889543235E-2,1.994233578E-2,-6.883266848E-3
2.366971000E0,2.706202120E-2,1.139162853E-2,-2.000032365E-2
2.376945000E0,3.063172288E-2,-8.088443428E-4,-3.185192123E-2
2.386920750E0,2.461563051E-2,-1.749243587E-2,-2.137675136E-2
2.396895750E0,1.275044866E-2,-2.482145466E-2,-7.936842740E-3
2.406870750E0,3.481581109E-3,-3.076661006E-2,-2.439082600E-3
2.416844750E0,-3.290837631E-3,-3.637336195E-2,1.109323744E-2
2.426819750E0,-7.858683821E-4,-4.242752492E-2,2.002867684E-2
2.436794750E0,4.083188716E-3,-3.583940119E-2,9.732361883E-3
2.446768750E0,4.003090318E-3,-2.467919700E-2,-6.687889341E-3
2.456743750E0,5.383178941E-4,-2.247516438E-2,-1.972299814E-2
2.466718750E0,9.508219548E-3,-1.596990786E-2,-2.555829659E-2
2.476693750E0,1.359217707E-2,-1.362073328E-2,-2.610450983E-2
2.486667750E0,1.499727089E-2,-1.221649535E-2,-3.204618394E-2
2.496642750E0,6.479151081E-3,-1.477339584E-2,-3.461586684E-2
2.506617750E0,4.216929083E-4,-6.131701171E-3,-3.593025729E-2
2.516592750E0,-6.491607055E-3,-2.323913388E-3,-3.902911022E-2
2.526566750E0,-8.715711534E-3,-7.322931662E-3,-2.994092554E-2
2.536541750E0,-7.067746948E-3,1.418894157E-3,-1.655241475E-2
2.546516750E0,5.279639736E-3,3.822986037E-4,-1.398943178E-2
2.556490750E0,1.515810378E-2,1.413473859E-3,-9.702274576E-3
2.566465750E0,1.382399071E-2,-6.791144609E-3,-1.029993407E-3
2.576440750E0,1.215019356E-2,-9.192517027E-3,-5.286257248E-3
2.586415750E0,3.224053187E-3,-5.020500161E-3,-8.944386616E-3
2.596389750E0,-3.985922784E-3,-8.430943824E-3,-1.221395005E-2
2.606364750E0,-3.815854434E-3,-4.714726470E-3,-9.805072099E-3
2.616339750E0,-2.955120755E-3,-8.678575046E-3,1.160227228E-3
2.626314750E0,2.386212349E-3,-1.060483791E-2,1.365349814E-2
2.636288750E0,1.003747433E-2,-5.942175165E-3,2.178066596E-2
2.646263750E0,1.096697431E-2,-2.695644274E-3,1.883879676E-2
2.656238750E0,1.146764867E-2,-2.504961565E-3,1.578494906E-2
2.666213750E0,7.990252227E-3,1.138813794E-3,8.257307112E-3
2.676187750E0,1.673233928E-3,-1.096110791E-3,-7.985061966E-4
2.686162750E0,-5.381288938E-3,3.994619474E-3,-7.757986430E-3
2.696137750E0,-5.494207144E-3,5.264680833E-3,-2.843655646E-3
2.706111750E0,-7.107594865E-5,6.966387853E-3,2.548218938E-3
2.716086750E0,6.727973931E-3,2.571107820E-3,9.013308212E-3
2.726061750E0,1.293298043E-2,8.574362844E-3,3.883745987E-3
2.736036750E0,1.690828055E-2,3.352437168E-3,-3.349133302E-3
2.746010750E0,1.589508355E-2,-2.678872086E-3,4.282192793E-3
2.755985750E0,7.519708481E-3,-8.343663067E-4,1.016990934E-2
2.765960750E0,3.601666074E-3,-7.123937830E-4,6.232691929E-3
2.775935750E0,8.392160758E-3,1.900967211E-3,-1.232680865E-3
2.785909750E0,1.255773194E-2,-1.943217590E-3,-1.429109741E-2
2.795884750E0,1.462780684E-2,2.361249179E-3,-2.124514431E-2
2.805859750E0,8.157795295E-3,1.083211973E-3,-3.010169044E-2
2.815833750E0,6.955112331E-3,-9.931089357E-3,-1.981469989E-2
2.825808750E0,6.154170260E-3,-1.082516648E-2,-5.697241984E-3
2.835783750E0,9.689516388E-3,-2.087433822E-2,2.288512420E-3
2.845758750E0,2.089238353E-2,-2.592010051E-2,-3.603575751E-4
2.855732750E0,3.026404791E-2,-3.756397218E-2,1.521432074E-3
2.865707750E0,3.673265502E-2,-4.242862016E-2,1.425998285E-2
2.875682750E0,3.932337835E-2,-4.333489388E-2,1.397076249E-2
2.885657750E0,3.049780615E-2,-3.846725821E-2,1.197086647E-2
2.895631750E0,1.360404398E-2,-2.026428469E-2,-4.499985836E-3
2.905606750E0,-1.198901329E-3,-1.314065326E-2,-2.180558071E-2
2.915581750E0,-8.780654520E-3,-1.141785458E-2,-1.960367896E-2
2.925555750E0,-1.109887566E-2,-4.887738265E-3,-1.522631012E-2
2.935530750E0,-6.330219563E-3,-6.714933552E-3,-7.557736710E-3
2.945505750E0,-5.208099727E-3,-3.017882816E-3,-1.962741371E-3
2.955480750E0,-4.870677367E-3,-2.483386546E-3,-3.397652414E-3
2.965454750E0,-7.058024872E-3,2.253558487E-3,-8.889382705E-3
2.975429750E0,-7.501441054E-3,4.991022870E-3,-1.081245206E-2
2.985404750E0,-8.870700374E-3,-1.145494170E-3,-1.009362005E-2
2.995379750E0,-5.064509809E-3,-5.267268978E-3,6.913831457E-4
3.005353750E0,2.692981390E-3,4.935774952E-3,-3.707998432E-3
3.015328750E0,2.230390441E-3,-3.844401799E-3,-2.944470383E-3
3.025303750E0,-7.029383443E-3,8.198898286E-3,-7.228777744E-3
3.035278750E0,-1.349820103E-2,1.014673524E-2,-1.536659990E-2
3.045252750E0,-3.688181937E-2,1.206687465E-2,-1.437057648E-2
3.055227750E0,-4.882822931E-2,2.283536643E-2,-2.580752224E-2
3.065202750E0,-7.553565502E-2,3.652761132E-2,-3.370997682E-2
3.075176750E0,-7.109163702E-2,4.847109318E-2,-6.501996517E-2
3.085151750E0,-7.951928675E-2,5.252850801E-2,-8.039450645E-2
3.095126750E0,-7.545583695E-2,6.027217954E-2,-7.908662409E-2
3.105101750E0,-5.137809366E-2,3.739985451E-2,-7.244554907E-2
3.115075750E0,-2.750285156E-2,2.476928011E-2,-3.525503725E-2
3.125050750E0,5.200179759E-3,-4.120575264E-3,1.008842839E-3
3.135025750E0,4.925632104E-2,-4.031240195E-2,3.926621750E-2
3.145000750E0,1.055750996E-1,-6.679441780E-2,7.620085031E-2
3.154974750E0,1.475675553E-1,-8.749916404E-2,1.233558431E-1
3.164949750E0,1.333215237E-1,-7.660590857E-2,1.523495913E-1
3.174924750E0,7.766785473E-2,-4.426821321E-2,8.900017291E-2