"Time (s)","X (rad/s)","Y (rad/s)","Z (rad/s)"
6.602708334E-3,-3.736901879E-1,3.801434338E-1,4.048689306E-1
1.665470833E-2,-4.834963083E-1,4.225872755E-1,4.076543450E-1
2.670670833E-2,-5.315723419E-1,4.406648874E-1,3.996731937E-1
3.675870833E-2,-5.283222198E-1,4.408997893E-1,3.752725124E-1
4.681070833E-2,-5.004780293E-1,4.404619932E-1,3.454401195E-1
5.686270833E-2,-4.726700783E-1,4.587200880E-1,3.228104413E-1
6.691470833E-2,-4.799008667E-1,4.954811633E-1,2.870928943E-1
7.696670833E-2,-5.354464054E-1,5.414513350E-1,2.364297062E-1
8.701870833E-2,-6.162019968E-1,5.580914021E-1,1.752352864E-1
9.707070833E-2,-7.111127973E-1,5.635996461E-1,1.238011345E-1
1.071227083E-1,-7.927926183E-1,5.831122994E-1,9.466712922E-2
1.171737083E-1,-8.441026807E-1,6.190124750E-1,7.555202395E-2
1.272257083E-1,-8.642871380E-1,6.374844313E-1,4.851786047E-2
1.372777083E-1,-8.698123693E-1,6.435902715E-1,3.047281504E-2
1.473297083E-1,-8.679911494E-1,6.672437787E-1,-1.432130206E-2
1.573817083E-1,-8.737928271E-1,7.585372329E-1,-8.909806609E-2
1.674337083E-1,-8.854280710E-1,8.859962821E-1,-1.825564802E-1
1.774857083E-1,-9.048646092E-1,9.264560938E-1,-3.178865910E-1
1.875377083E-1,-9.510583282E-1,9.345404506E-1,-4.695951045E-1
1.975897083E-1,-1.033709526E0,9.314429164E-1,-5.907076597E-1
2.076417083E-1,-1.125092149E0,9.239508510E-1,-6.867248416E-1
2.176937083E-1,-1.224392891E0,9.352027178E-1,-7.911375165E-1
2.277457083E-1,-1.339390039E0,9.642430544E-1,-9.324682355E-1
2.377977083E-1,-1.444442749E0,1.034874082E0,-1.099511743E0
2.478497083E-1,-1.509886384E0,1.162397146E0,-1.274864554E0
2.579017083E-1,-1.536973476E0,1.316537499E0,-1.477497816E0
2.679537083E-1,-1.540503263E0,1.490609646E0,-1.744167328E0
2.780057083E-1,-1.536981463E0,1.670903802E0,-2.064315796E0
2.880577083E-1,-1.584507823E0,1.788002133E0,-2.413142443E0
2.981097083E-1,-1.706431270E0,1.740745664E0,-2.769994020E0
3.081617083E-1,-1.887777925E0,1.563323975E0,-3.051286936E0
3.182137083E-1,-2.239949942E0,1.479452848E0,-3.121574640E0
3.282657083E-1,-2.551983595E0,1.024511933E0,-2.968427420E0
3.383177083E-1,-2.863435030E0,8.880299926E-1,-2.730767488E0
3.483697083E-1,-3.017627239E0,5.820021033E-1,-2.507467508E0
3.584207083E-1,-3.105852127E0,3.972724080E-1,-2.284956932E0
3.684727083E-1,-3.098145485E0,2.577129304E-1,-2.103963614E0
3.785247083E-1,-3.140178204E0,1.519105881E-1,-2.007689476E0
3.885767083E-1,-3.225592375E0,9.456176311E-2,-1.997410893E0
3.986285833E-1,-3.298124075E0,9.180033207E-2,-2.037453175E0
4.086805833E-1,-3.357595921E0,1.180480197E-1,-2.119482517E0
4.187325833E-1,-3.417421103E0,1.933507621E-1,-2.202796936E0
4.287845833E-1,-3.451569796E0,2.332740277E-1,-2.283342123E0
4.388365833E-1,-3.458685160E0,2.892635465E-1,-2.384214878E0
4.488885833E-1,-3.396110535E0,3.509530723E-1,-2.526402712E0
4.589405833E-1,-3.270414829E0,4.219603837E-1,-2.669958591E0
4.689925833E-1,-3.088575363E0,5.260951519E-1,-2.802664042E0
4.790445833E-1,-2.836318016E0,6.499497294E-1,-2.941629887E0
4.890965833E-1,-2.568591118E0,7.684289217E-1,-3.099485874E0
4.991485833E-1,-2.339570999E0,8.328191042E-1,-3.300585270E0
5.092005833E-1,-2.139714718E0,8.907718658E-1,-3.563433647E0
5.192525833E-1,-1.975073099E0,9.172639251E-1,-3.876127720E0
5.293045833E-1,-1.840075731E0,9.239189029E-1,-4.202435493E0
5.393565833E-1,-1.738393068E0,9.568954706E-1,-4.493149757E0
5.494085833E-1,-1.669223547E0,8.962444663E-1,-4.771385193E0
5.594605833E-1,-1.694368362E0,8.032167554E-1,-5.020462513E0
5.695125833E-1,-1.762778997E0,6.637845039E-1,-5.201895237E0
5.795645833E-1,-1.835710168E0,4.932479262E-1,-5.276119709E0
5.896165833E-1,-1.884232879E0,3.282433450E-1,-5.205982685E0
5.996675833E-1,-1.889816642E0,1.428348422E-1,-5.010466099E0
6.097195833E-1,-1.885312676E0,8.563645184E-3,-4.684606552E0
6.197715833E-1,-1.812000632E0,-1.388897300E-1,-4.306862354E0
6.298235833E-1,-1.677951217E0,-2.730310857E-1,-3.946976423E0
6.398755833E-1,-1.524058580E0,-3.681341708E-1,-3.609679461E0
6.499275833E-1,-1.379902959E0,-4.332302213E-1,-3.311650276E0
6.599795833E-1,-1.279792905E0,-4.680449367E-1,-3.053246975E0
6.700315833E-1,-1.212153316E0,-4.608892202E-1,-2.835080624E0
6.800835833E-1,-1.139063120E0,-4.111155272E-1,-2.646234989E0
6.901355833E-1,-1.030727029E0,-3.531731367E-1,-2.483900785E0
7.001875833E-1,-8.685532808E-1,-2.310949117E-1,-2.346083403E0
7.102395833E-1,-6.225867271E-1,-5.966078117E-2,-2.263686419E0
7.202915833E-1,-2.805614471E-1,1.474514008E-1,-2.249724388E0
7.303435833E-1,1.104664505E-1,3.895965219E-1,-2.288481236E0
7.403955833E-1,5.132855177E-1,7.065800428E-1,-2.355636835E0
7.504475833E-1,9.258446693E-1,1.045429707E0,-2.421559811E0
7.604995833E-1,1.303595424E0,1.358268023E0,-2.474553823E0
7.705515833E-1,1.565855742E0,1.680136681E0,-2.493289471E0
7.806035833E-1,1.730465651E0,1.992202401E0,-2.455987930E0
7.906555833E-1,1.794302583E0,2.269746304E0,-2.372925043E0
8.007075833E-1,1.802439570E0,2.479673147E0,-2.272479534E0
8.107595833E-1,1.756173730E0,2.618352890E0,-2.165781975E0
8.208115833E-1,1.660654664E0,2.706838369E0,-2.050361872E0
8.308635833E-1,1.535897493E0,2.751940250E0,-1.943522573E0
8.409155833E-1,1.399516225E0,2.752641916E0,-1.827754259E0
8.509665833E-1,1.269248843E0,2.700550556E0,-1.682504296E0
8.610185833E-1,1.148020983E0,2.609553814E0,-1.502387285E0
8.710705833E-1,1.049049497E0,2.499125481E0,-1.270324349E0
8.811225833E-1,9.752159715E-1,2.338653803E0,-1.003020048E0
8.911745833E-1,8.933972120E-1,2.154777527E0,-7.066095471E-1
9.012265833E-1,8.055781126E-1,1.955659032E0,-3.933054209E-1
9.112785833E-1,7.243835330E-1,1.775679111E0,-7.196443528E-2
9.213305833E-1,6.789753437E-1,1.601454258E0,2.304212600E-1
9.313825833E-1,6.113858819E-1,1.426065683E0,5.158109665E-1
9.414345833E-1,4.929679334E-1,1.239016175E0,7.507758141E-1
9.514865833E-1,3.120082617E-1,1.076151729E0,9.293339252E-1
9.615385833E-1,9.145458788E-2,9.190028310E-1,1.074089408E0
9.715905833E-1,-1.165984571E-1,7.188253403E-1,1.209712148E0
9.816425833E-1,-3.004343212E-1,4.541012645E-1,1.339522839E0
9.916945833E-1,-4.689413905E-1,1.902921051E-1,1.445677042E0
1.001746583E0,-6.444737911E-1,-3.358919173E-2,1.534391761E0
1.011798583E0,-8.201195598E-1,-2.133264840E-1,1.611657858E0
1.021850583E0,-9.802011251E-1,-3.702612221E-1,1.667136312E0
1.031902583E0,-1.125362873E0,-4.732179046E-1,1.719946623E0
1.041954583E0,-1.251988411E0,-4.856719077E-1,1.787189364E0
1.052006583E0,-1.332460642E0,-4.419380724E-1,1.873509884E0
1.062058583E0,-1.392427325E0,-3.848199248E-1,1.967597246E0
1.072110583E0,-1.408760905E0,-3.219392598E-1,2.061389208E0
1.082162583E0,-1.413237095E0,-2.470690161E-1,2.150741816E0
1.092214583E0,-1.416580558E0,-1.779414862E-1,2.244668722E0
1.102266583E0,-1.398167491E0,-1.568465978E-1,2.343436241E0
1.112318583E0,-1.340469956E0,-1.755940318E-1,2.455445528E0
1.122370583E0,-1.248333931E0,-1.905812472E-1,2.589887857E0
1.132421583E0,-1.142325997E0,-1.991281807E-1,2.749292612E0
1.142473583E0,-1.042937636E0,-2.050609142E-1,2.931576014E0
1.152525583E0,-9.560206532E-1,-1.816906333E-1,3.134025812E0
1.162577583E0,-8.869251609E-1,-1.427717209E-1,3.346008778E0
1.172629583E0,-8.243551254E-1,-1.080594808E-1,3.552406549E0
1.182681583E0,-7.488465309E-1,-7.991226763E-2,3.744175434E0
1.192733583E0,-6.547774076E-1,-5.615222082E-2,3.919598341E0
1.202785583E0,-5.039551258E-1,-5.050152540E-2,4.064414024E0
1.212837583E0,-4.309352040E-1,2.063303143E-1,4.450386524E0
1.222889583E0,-1.382492781E-1,-8.740795255E-1,4.602849007E0
1.232941583E0,-1.094590798E-1,-9.577531219E-1,4.697165489E0
1.242993583E0,1.361046135E-1,-7.386109233E-1,4.280719280E0
1.253045583E0,3.827677965E-1,-4.345853925E-1,4.006810188E0
1.263097583E0,5.772131681E-1,-2.442748249E-1,3.696760416E0
1.273149583E0,7.877596021E-1,-5.031970143E-2,3.389565945E0
1.283201583E0,1.001093984E0,6.942747533E-2,3.144943714E0
1.293253583E0,1.149319410E0,4.994538054E-2,3.002768755E0
1.303305583E0,1.188099504E0,-6.228236109E-2,2.980176687E0
1.313357583E0,1.142997742E0,-2.784394622E-1,3.009089947E0
1.323409583E0,1.054195762E0,-5.136072636E-1,3.025764465E0
1.333461583E0,9.339822531E-1,-7.216253281E-1,2.992237806E0
1.343513583E0,7.999701500E-1,-8.832712173E-1,2.890454292E0
1.353565583E0,6.664075255E-1,-9.644327164E-1,2.722265482E0
1.363617583E0,5.260687470E-1,-9.755284786E-1,2.494297743E0
1.373669583E0,3.617382348E-1,-9.144712687E-1,2.235015631E0
1.383721583E0,1.759902090E-1,-8.084231019E-1,1.983512521E0
1.393773583E0,-2.836474031E-2,-7.400617599E-1,1.749630690E0
1.403824958E0,-2.071749568E-1,-7.002440691E-1,1.560720921E0
1.413876958E0,-3.009472489E-1,-6.863822341E-1,1.431832790E0
1.423927958E0,-3.333587348E-1,-7.210174203E-1,1.317066550E0
1.433979958E0,-3.313103914E-1,-7.717986107E-1,1.171440244E0
1.444031958E0,-3.139612377E-1,-7.920428514E-1,9.965714812E-1
1.454083958E0,-2.908031940E-1,-7.756460905E-1,7.992658019E-1
1.464135958E0,-2.631931305E-1,-7.277118564E-1,5.763953924E-1
1.474187958E0,-2.382597178E-1,-6.505494118E-1,3.321405649E-1
1.484239958E0,-2.334084958E-1,-5.547326207E-1,5.656944588E-2
1.494291958E0,-2.450506836E-1,-4.412702322E-1,-2.199601233E-1
1.504343958E0,-2.634267807E-1,-3.274608254E-1,-4.559944868E-1
1.514395958E0,-2.974686623E-1,-2.233023494E-1,-6.496900916E-1
1.524447958E0,-3.387782872E-1,-1.413539499E-1,-8.139591813E-1
1.534499958E0,-3.901213109E-1,-9.991684556E-2,-9.588762522E-1
1.544551958E0,-4.780136049E-1,-8.009680361E-2,-1.106887817E0
1.554603958E0,-6.066299081E-1,-6.544721127E-2,-1.266644478E0
1.564655958E0,-7.618394494E-1,-5.361931399E-2,-1.441658974E0
1.574707958E0,-9.072062373E-1,-2.714325488E-2,-1.616354227E0
1.584759958E0,-1.013190746E0,2.749389037E-2,-1.805051923E0
1.594811958E0,-1.023140669E0,6.955242902E-2,-2.035478354E0
1.604863958E0,-9.093089104E-1,1.014392525E-1,-2.310354710E0
1.614915958E0,-6.817229986E-1,1.280117631E-1,-2.605088711E0
1.624967958E0,-4.018682241E-1,1.498137414E-1,-2.894297123E0
1.635019958E0,-1.072978899E-1,1.615024358E-1,-3.189287186E0
1.645071958E0,1.467426419E-1,1.586613655E-1,-3.483024836E0
1.655123958E0,3.080041111E-1,1.466456205E-1,-3.717504978E0
1.665175958E0,3.367960751E-1,1.551205963E-1,-3.848044872E0
1.675227958E0,2.461219877E-1,1.518565416E-1,-3.832299471E0
1.685279958E0,6.220008060E-2,1.545034647E-1,-3.676999331E0
1.695331958E0,-1.441987753E-1,1.602879316E-1,-3.399812698E0
1.705383958E0,-3.238769174E-1,1.830976456E-1,-3.053824425E0
1.715435958E0,-4.532844424E-1,1.756000668E-1,-2.686157703E0
1.725487958E0,-5.260856748E-1,1.198598444E-1,-2.341298103E0
1.735539958E0,-5.480938554E-1,1.283725910E-2,-2.046282053E0
1.745590958E0,-5.108149648E-1,-1.145390719E-1,-1.831052780E0
1.755642958E0,-4.439325631E-1,-2.128035426E-1,-1.700211406E0
1.765694958E0,-3.610890806E-1,-2.625881135E-1,-1.629886389E0
1.775746958E0,-2.689189911E-1,-2.656767666E-1,-1.617991686E0
1.785798958E0,-1.560233235E-1,-1.909572631E-1,-1.639670849E0
1.795850958E0,-9.780304506E-3,-6.501061469E-2,-1.686396003E0
1.805902958E0,1.644125283E-1,5.208911002E-2,-1.755723953E0
1.815954958E0,3.213312030E-1,1.581845433E-1,-1.813518047E0
1.826006958E0,4.472875297E-1,2.373320907E-1,-1.842639923E0
1.836058958E0,5.551987290E-1,2.660971582E-1,-1.828105569E0
1.846110958E0,6.495009661E-1,2.260799408E-1,-1.762853861E0
1.856162958E0,7.301151752E-1,1.174699739E-1,-1.664933562E0
1.866214958E0,7.794805765E-1,3.706274927E-2,-1.516315103E0
1.876266958E0,8.139728904E-1,-3.964528441E-2,-1.306866169E0
1.886318958E0,8.203580976E-1,-2.129663713E-2,-1.034789920E0
1.896370958E0,8.514176011E-1,7.166360319E-2,-7.388206720E-1
1.906422958E0,9.414867759E-1,2.033417374E-1,-4.747620821E-1
1.916474958E0,1.027206421E0,3.717743456E-1,-2.827930748E-1
1.926526958E0,1.087302804E0,5.118238926E-1,-1.249145046E-1
1.936578958E0,1.123303175E0,5.813726783E-1,2.711392194E-2
1.946630958E0,1.154908538E0,5.630636811E-1,1.979804784E-1
1.956682958E0,1.182164192E0,4.242387414E-1,4.345415533E-1
1.966734958E0,1.201113462E0,2.029684037E-1,7.659184337E-1
1.976786958E0,1.219220757E0,1.349996682E-2,1.214773297E0
1.986838958E0,1.265030503E0,-7.841584086E-2,1.722768068E0
1.996890958E0,1.359263420E0,-8.426713757E-3,2.203693390E0
2.006942958E0,1.476305604E0,1.493480057E-1,2.571855545E0
2.016994958E0,1.604459047E0,3.088889122E-1,2.792462111E0
2.027046958E0,1.725852609E0,4.264762402E-1,2.926944494E0
2.037098958E0,1.830806732E0,5.110491514E-1,3.029379606E0
2.047150958E0,1.931701064E0,5.778034329E-1,3.163982153E0
2.057202958E0,2.012436867E0,6.064420342E-1,3.378285408E0
2.067254958E0,2.065278053E0,6.475873590E-1,3.608119488E0
2.077306958E0,2.118631124E0,7.357521653E-1,3.795559406E0
2.087358958E0,2.184550762E0,8.890938163E-1,3.947777748E0
2.097410958E0,2.249577522E0,1.156472564E0,4.114091396E0
2.107461958E0,2.310348749E0,1.404964924E0,4.252192497E0
2.117513958E0,2.319912195E0,1.633806348E0,4.350307465E0
2.127565958E0,2.298245192E0,1.827309251E0,4.414141178E0
2.137617958E0,2.231657743E0,1.968753457E0,4.460032463E0
2.147669958E0,2.108031750E0,2.027375460E0,4.496294022E0
2.157721958E0,1.959929347E0,2.022148609E0,4.549543858E0
2.167773958E0,1.829613447E0,2.006640434E0,4.614834309E0
2.177825958E0,1.739953518E0,1.990830898E0,4.682562828E0
2.187877958E0,1.717105389E0,2.024956942E0,4.736354828E0
2.197929958E0,1.766758800E0,2.163696527E0,4.781319618E0
2.207981958E0,1.886460066E0,2.356482267E0,4.774849415E0
2.218033958E0,2.021503687E0,2.553881884E0,4.729298115E0
2.228085958E0,2.096729755E0,2.727421999E0,4.681474686E0
2.238137958E0,2.075937271E0,2.847795725E0,4.632807255E0
2.248189958E0,1.969765782E0,2.854285717E0,4.561091423E0
2.258241958E0,1.787878752E0,2.796206951E0,4.464275837E0
2.268293958E0,1.554912448E0,2.692265272E0,4.365682125E0
2.278345958E0,1.327531695E0,2.586880207E0,4.282323360E0
2.288397958E0,1.152528167E0,2.499732256E0,4.205695629E0
2.298449958E0,1.025790453E0,2.374042511E0,4.125169754E0
2.308501958E0,8.961334825E-1,2.227582455E0,4.027895451E0
2.318553958E0,7.490403056E-1,2.113820076E0,3.907480240E0
2.328605958E0,6.339185238E-1,1.997292161E0,3.751438618E0
2.338657958E0,5.557675362E-1,1.869349599E0,3.578611851E0
2.348709958E0,4.956181943E-1,1.734885693E0,3.368235111E0
2.358761958E0,4.480021000E-1,1.624747276E0,3.122769594E0
2.368813958E0,4.198604822E-1,1.529306173E0,2.852260113E0
2.378865958E0,3.910748363E-1,1.415110588E0,2.558585405E0
2.388917958E0,3.439544737E-1,1.326992989E0,2.254514933E0
2.398970000E0,2.865510881E-1,1.270564079E0,1.945786238E0
2.409022000E0,2.401359230E-1,1.179874897E0,1.661205053E0
2.419074000E0,1.982936412E-1,1.042556524E0,1.439833045E0
2.429126000E0,1.450203061E-1,9.313139319E-1,1.290592670E0
2.439178000E0,1.245581061E-1,8.360807300E-1,1.157333136E0
2.449230000E0,1.454902738E-1,7.845005989E-1,1.033940673E0
2.459282000E0,2.346919775E-1,7.771286964E-1,9.261093140E-1
2.469334000E0,3.605526984E-1,7.511059046E-1,8.223509192E-1
2.479385000E0,4.756104946E-1,7.005271316E-1,7.071569562E-1
2.489437000E0,5.446348190E-1,6.043851376E-1,5.835580826E-1
2.499489000E0,5.474898815E-1,5.146611333E-1,4.777731001E-1
2.509541000E0,5.066271424E-1,4.509191513E-1,4.114026129E-1
2.519593000E0,4.480663240E-1,3.721892238E-1,3.712955117E-1
2.529645000E0,3.604547083E-1,3.116680682E-1,3.146849573E-1
2.539697000E0,2.527820766E-1,2.404843122E-1,2.757757604E-1
2.549749000E0,1.545929164E-1,1.565060616E-1,3.046191335E-1
2.559801000E0,8.318316936E-2,2.164215967E-2,3.948687613E-1
2.569853000E0,2.263406850E-2,-1.180630103E-1,5.192573071E-1
2.579905000E0,-4.848392308E-2,-2.264418006E-1,6.094022393E-1
2.589957000E0,-1.064124703E-1,-2.993831336E-1,6.252880096E-1
2.600009000E0,-1.494977921E-1,-3.043016791E-1,5.699562430E-1
2.610061000E0,-1.499571800E-1,-2.955135405E-1,4.781112671E-1
2.620113000E0,-1.445431709E-1,-3.349800110E-1,3.774925768E-1
2.630165000E0,-1.456861943E-1,-3.983440697E-1,2.503061295E-1
2.640217000E0,-1.650651097E-1,-4.383148551E-1,1.297565848E-1
2.650269000E0,-2.095747888E-1,-4.344601929E-1,3.670333326E-2
2.660321000E0,-2.519524693E-1,-4.171007872E-1,-2.298146673E-2
2.670373000E0,-2.688150704E-1,-4.067392349E-1,-4.360924661E-2
2.680425000E0,-2.382363379E-1,-4.274653792E-1,-3.454595432E-2
2.690477000E0,-2.172040343E-1,-5.263525248E-1,-5.460141972E-2
2.700529000E0,-2.617300451E-1,-6.622169614E-1,-1.019502282E-1
2.710581000E0,-4.763677716E-1,-5.762722492E-1,-2.019199729E-1
2.720633000E0,-4.858398438E-1,-4.986921847E-1,-3.410533369E-1
2.730685000E0,-1.334252954E0,-9.053464532E-1,-4.674698710E-1
2.740737000E0,-1.102611899E0,3.365183771E-1,-2.091831528E-2
2.750789000E0,3.882416189E-1,3.879315257E-1,-8.475571275E-1
2.760841000E0,5.218417048E-1,1.162035987E-1,-1.246478915E0
2.770893000E0,2.047308236E-1,1.709619164E-2,-7.248417735E-1
2.780945000E0,-2.620563284E-2,-2.804933786E-1,-2.583359778E-1
2.790997000E0,-1.730592549E-1,-3.689846396E-1,-4.297013208E-2
2.801049000E0,-4.514686018E-2,-3.222619891E-1,-7.274983823E-2
2.811101000E0,9.933788329E-2,-2.687231302E-1,-2.149272114E-1
2.821153000E0,1.155930310E-1,-2.520860732E-1,-3.045201004E-1
2.831205000E0,1.101476625E-1,-2.488918751E-1,-3.704943061E-1
2.841257000E0,1.318515092E-1,-2.295715511E-1,-4.497681558E-1
2.851309000E0,1.666965783E-1,-2.142469138E-1,-5.371339321E-1
2.861361000E0,1.871595383E-1,-2.233583182E-1,-6.284874082E-1
2.871413000E0,1.735571772E-1,-2.723314464E-1,-7.132472992E-1
2.881465000E0,1.246839613E-1,-3.379763067E-1,-7.557266951E-1
2.891517000E0,5.762769654E-2,-4.106853902E-1,-7.430806756E-1
2.901569000E0,-1.659247279E-2,-4.771333933E-1,-6.757541299E-1
2.911621000E0,-8.044096082E-2,-5.148884654E-1,-6.144478917E-1
2.921673000E0,-8.686552197E-2,-4.976795614E-1,-5.509203672E-1
2.931725000E0,-5.159488693E-2,-4.837965071E-1,-5.344788432E-1
2.941776000E0,-1.029274799E-2,-4.403042495E-1,-5.567137599E-1
2.951828000E0,1.501234155E-2,-3.756458759E-1,-6.073873043E-1
2.961880000E0,3.158629313E-2,-3.408787549E-1,-6.552940607E-1
2.971932000E0,3.552484140E-2,-3.736199439E-1,-7.248858809E-1
2.981984000E0,3.692444414E-2,-3.908012211E-1,-8.809518218E-1
2.992036000E0,2.269677445E-2,-4.263192713E-1,-9.250023365E-1
3.002088000E0,2.900681645E-2,-4.363853633E-1,-8.652367592E-1
3.012140000E0,4.492639750E-2,-4.517912269E-1,-7.570506334E-1
3.022192000E0,4.593348876E-2,-4.959291816E-1,-6.587309241E-1
3.032244000E0,3.895627335E-2,-5.413286090E-1,-5.802744627E-1
3.042296000E0,2.751257643E-2,-5.882030129E-1,-5.331185460E-1
3.052348000E0,2.613732032E-2,-6.089026928E-1,-5.009608865E-1
3.062400000E0,3.358249739E-2,-6.140447855E-1,-4.913613796E-1
3.072452000E0,3.692023456E-2,-6.112372875E-1,-5.039685369E-1
3.082504000E0,3.124339506E-2,-6.029883027E-1,-5.462490916E-1
3.092556000E0,6.614748389E-3,-5.922057033E-1,-5.894442201E-1
3.102608000E0,-3.233958036E-2,-5.773522258E-1,-6.159422398E-1
3.112660000E0,-6.892262399E-2,-5.588557720E-1,-6.254643798E-1
3.122712000E0,-1.041250676E-1,-5.444898009E-1,-6.128209829E-1
3.132764000E0,-1.316789389E-1,-5.409065485E-1,-5.856804252E-1
3.142816000E0,-1.667606384E-1,-5.311318636E-1,-5.527260303E-1
3.152868000E0,-2.186952084E-1,-5.215258598E-1,-5.375540257E-1
3.162920000E0,-2.690323293E-1,-4.977075756E-1,-5.191842914E-1
3.172972000E0,-3.182251751E-1,-4.478635788E-1,-4.947585762E-1
3.183024000E0,-3.405087888E-1,-3.751757145E-1,-4.730299115E-1
3.193076000E0,-3.325211704E-1,-2.811802626E-1,-4.413856864E-1
3.203128000E0,-3.093030453E-1,-1.730341762E-1,-3.924090266E-1
3.213180000E0,-3.143739700E-1,-8.942156285E-2,-3.598745167E-1
3.223232000E0,-3.757185936E-1,-6.045602635E-2,-3.420810103E-1
3.233284000E0,-5.083456039E-1,-7.496572286E-2,-3.531637788E-1
3.243336000E0,-7.167650461E-1,-1.063007340E-1,-4.020983875E-1
3.253388000E0,-9.869573712E-1,-1.201249361E-1,-4.731829464E-1
3.263440000E0,-1.275498152E0,-1.126589179E-1,-5.466647744E-1
3.273492000E0,-1.564574957E0,-8.908355236E-2,-6.335961819E-1
3.283544000E0,-1.825836420E0,-5.633520707E-2,-7.268716693E-1
3.293596000E0,-2.012022972E0,-2.328963252E-3,-8.020824790E-1
3.303648000E0,-2.123320103E0,5.433405936E-2,-8.315430284E-1
3.313700000E0,-2.166668177E0,6.045640260E-2,-8.318972588E-1
3.323752000E0,-2.125121117E0,4.001764581E-2,-8.001202941E-1
3.333804000E0,-2.065746069E0,1.989986189E-2,-7.533314824E-1
3.343856000E0,-2.072880030E0,-4.386197776E-2,-7.620042562E-1
3.353908000E0,-2.129610062E0,-1.384153813E-1,-8.087584376E-1
