"Time (s)","X (µT)","Y (µT)","Z (µT)"
6.602708334E-3,3.834362411E1,-5.033996582E1,-5.081587219E1
1.665470833E-2,3.858651352E1,-5.042884827E1,-5.098689270E1
2.670670833E-2,3.864957428E1,-5.041086578E1,-5.113220215E1
3.675870833E-2,3.845116806E1,-5.029273987E1,-5.172563171E1
4.681070833E-2,3.902037048E1,-5.011891556E1,-5.189396667E1
5.686270833E-2,3.923269653E1,-4.992272949E1,-5.170190430E1
6.691470833E-2,3.936069489E1,-5.008213806E1,-5.171058655E1
7.696670833E-2,3.959162521E1,-4.996722412E1,-5.170626831E1
8.701870833E-2,4.001597214E1,-5.002429199E1,-5.178564453E1
9.707070833E-2,4.017748642E1,-4.973250961E1,-5.213606262E1
1.071227083E-1,4.010259247E1,-4.937836456E1,-5.212834167E1
1.171737083E-1,4.033478928E1,-4.912578583E1,-5.197410583E1
1.272257083E-1,4.074227142E1,-4.855117798E1,-5.218174744E1
1.372777083E-1,4.096824646E1,-4.828273010E1,-5.255758667E1
1.473297083E-1,4.133456421E1,-4.819325256E1,-5.261895752E1
1.573817083E-1,4.179795456E1,-4.768545532E1,-5.261970520E1
1.674337083E-1,4.227177429E1,-4.738306046E1,-5.270559692E1
1.774857083E-1,4.286520767E1,-4.720925522E1,-5.279138184E1
1.875377083E-1,4.331466675E1,-4.643823242E1,-5.286592102E1
1.975897083E-1,4.389183807E1,-4.574893188E1,-5.274858093E1
2.076417083E-1,4.447518921E1,-4.514867401E1,-5.281474304E1
2.176937083E-1,4.557630539E1,-4.421994781E1,-5.313859558E1
2.277457083E-1,4.636974335E1,-4.330277252E1,-5.336244202E1
2.377977083E-1,4.725340652E1,-4.242955399E1,-5.342846680E1
2.478497083E-1,4.789332962E1,-4.135917664E1,-5.338829041E1
2.579017083E-1,4.865146255E1,-4.012694550E1,-5.369633484E1
2.679537083E-1,4.982110596E1,-3.873857117E1,-5.362982178E1
2.780057083E-1,5.103606415E1,-3.717689514E1,-5.351502991E1
2.880577083E-1,5.225756836E1,-3.529833984E1,-5.330380249E1
2.981097083E-1,5.349732590E1,-3.347827530E1,-5.308708191E1
3.081617083E-1,5.486827850E1,-3.160535049E1,-5.274511719E1
3.182137083E-1,5.574623108E1,-2.933282471E1,-5.239625549E1
3.282657083E-1,5.695085144E1,-2.671628571E1,-5.178446960E1
3.383177083E-1,5.812374878E1,-2.410137749E1,-5.216549683E1
3.483697083E-1,5.879824829E1,-2.128479195E1,-5.172987366E1
3.584207083E-1,5.916325378E1,-1.873755646E1,-5.151100159E1
3.684727083E-1,5.969096375E1,-1.586512947E1,-5.125796509E1
3.785247083E-1,5.975859833E1,-1.360757065E1,-5.120701599E1
3.885767083E-1,5.973436737E1,-1.124038696E1,-5.102377319E1
3.986285833E-1,5.951890945E1,-8.839819908E0,-5.063311768E1
4.086805833E-1,5.956008148E1,-6.243328094E0,-4.977110291E1
4.187325833E-1,5.960143280E1,-3.613189697E0,-4.911135864E1
4.287845833E-1,5.933689880E1,-1.030118942E0,-4.838069153E1
4.388365833E-1,5.887528992E1,1.385183334E0,-4.731399536E1
4.488885833E-1,5.874472046E1,4.061374664E0,-4.639901733E1
4.589405833E-1,5.841180420E1,6.612928391E0,-4.507888794E1
4.689925833E-1,5.802796173E1,8.891313553E0,-4.354220581E1
4.790445833E-1,5.744923401E1,1.112382698E1,-4.202008057E1
4.890965833E-1,5.675262451E1,1.357864571E1,-4.100784302E1
4.991485833E-1,5.578679657E1,1.552361107E1,-3.970463562E1
5.092005833E-1,5.465534592E1,1.781864738E1,-3.841674805E1
5.192525833E-1,5.357849503E1,2.008210945E1,-3.741119385E1
5.293045833E-1,5.217627716E1,2.198357582E1,-3.603541565E1
5.393565833E-1,5.053436279E1,2.412027550E1,-3.440794373E1
5.494085833E-1,4.856762695E1,2.586377144E1,-3.311112976E1
5.594605833E-1,4.612617493E1,2.777392387E1,-3.251351929E1
5.695125833E-1,4.392471313E1,2.983044243E1,-3.129533386E1
5.795645833E-1,4.113461685E1,3.144706917E1,-3.018327332E1
5.896165833E-1,3.848752594E1,3.308358002E1,-2.925180054E1
5.996675833E-1,3.571237946E1,3.419105530E1,-2.787063599E1
6.097195833E-1,3.292308426E1,3.510973358E1,-2.711831665E1
6.197715833E-1,3.034198189E1,3.608742523E1,-2.650015259E1
6.298235833E-1,2.795411491E1,3.684004211E1,-2.530882263E1
6.398755833E-1,2.557891464E1,3.741270447E1,-2.443475342E1
6.499275833E-1,2.354244995E1,3.783592987E1,-2.376887512E1
6.599795833E-1,2.166370583E1,3.784847260E1,-2.323667908E1
6.700315833E-1,1.988752174E1,3.777384186E1,-2.280242920E1
6.800835833E-1,1.810483170E1,3.762719727E1,-2.200717163E1
6.901355833E-1,1.656614113E1,3.755507660E1,-2.148490906E1
7.001875833E-1,1.522991562E1,3.742626190E1,-2.114236450E1
7.102395833E-1,1.395780945E1,3.701521301E1,-2.058125305E1
7.202915833E-1,1.276794243E1,3.707495117E1,-2.014674377E1
7.303435833E-1,1.122784805E1,3.652735901E1,-2.005891418E1
7.403955833E-1,1.015172195E1,3.613063049E1,-2.051522827E1
7.504475833E-1,8.982831955E0,3.616555023E1,-2.081826782E1
7.604995833E-1,7.747991562E0,3.573564148E1,-2.159701538E1
7.705515833E-1,6.381118774E0,3.531215668E1,-2.266427612E1
7.806035833E-1,5.353679657E0,3.502175140E1,-2.386701965E1
7.906555833E-1,4.235618591E0,3.454380035E1,-2.489002991E1
8.007075833E-1,3.355453491E0,3.424692535E1,-2.623336792E1
8.107595833E-1,2.524406433E0,3.354502106E1,-2.718870544E1
8.208115833E-1,2.026092529E0,3.321671295E1,-2.863452148E1
8.308635833E-1,1.384426117E0,3.272885132E1,-2.951596069E1
8.409155833E-1,6.647796631E-1,3.228923035E1,-3.068754578E1
8.509665833E-1,-4.489517212E-2,3.178553200E1,-3.179554749E1
8.610185833E-1,-4.542999268E-1,3.132229424E1,-3.256211853E1
8.710705833E-1,-5.922355652E-1,3.103885078E1,-3.350473022E1
8.811225833E-1,-7.131347656E-1,3.092699242E1,-3.444311523E1
8.911745833E-1,-7.074165344E-1,3.075938225E1,-3.531179810E1
9.012265833E-1,-5.856475830E-1,3.051198387E1,-3.596688843E1
9.112785833E-1,-6.193809509E-1,3.044462776E1,-3.641368103E1
9.213305833E-1,-1.610984802E-1,3.028683281E1,-3.728274536E1
9.313825833E-1,5.119743347E-1,3.026541710E1,-3.799765015E1
9.414345833E-1,7.564163208E-1,3.019877052E1,-3.847987366E1
9.514865833E-1,1.426193237E0,3.053384972E1,-3.919644165E1
9.615385833E-1,1.957504272E0,3.067593956E1,-3.949259949E1
9.715905833E-1,2.738506317E0,3.082553673E1,-3.971723938E1
9.816425833E-1,3.372428894E0,3.127443886E1,-3.991154480E1
9.916945833E-1,4.029716492E0,3.171996880E1,-3.969981384E1
1.001746583E0,4.865470886E0,3.233676910E1,-3.950006104E1
1.011798583E0,5.594245911E0,3.247595215E1,-3.944871521E1
1.021850583E0,6.218860626E0,3.305568695E1,-3.876701355E1
1.031902583E0,7.040960312E0,3.360501862E1,-3.897227478E1
1.041954583E0,7.799320221E0,3.436989594E1,-3.827716064E1
1.052006583E0,8.412607193E0,3.533042145E1,-3.777093506E1
1.062058583E0,9.237005234E0,3.567160797E1,-3.728836060E1
1.072110583E0,1.036024284E1,3.641637421E1,-3.657948303E1
1.082162583E0,1.128966141E1,3.714219666E1,-3.613336182E1
1.092214583E0,1.245494843E1,3.755770111E1,-3.495994568E1
1.102266583E0,1.361652184E1,3.822142792E1,-3.461405945E1
1.112318583E0,1.491178513E1,3.899923706E1,-3.420530701E1
1.122370583E0,1.652071571E1,3.961016083E1,-3.338357544E1
1.132421583E0,1.787475777E1,3.978260803E1,-3.329154968E1
1.142473583E0,1.936104202E1,4.015589142E1,-3.299221802E1
1.152525583E0,2.108136368E1,4.065830231E1,-3.228491211E1
1.162577583E0,2.268864059E1,4.055492401E1,-3.170759583E1
1.172629583E0,2.485919952E1,4.095018768E1,-3.191125488E1
1.182681583E0,2.716656876E1,4.061544037E1,-3.179231262E1
1.192733583E0,2.936993408E1,4.084437561E1,-3.193228149E1
1.202785583E0,3.170817947E1,4.044796753E1,-3.181605530E1
1.212837583E0,3.439501572E1,3.986080933E1,-3.194915771E1
1.222889583E0,3.717210770E1,3.928136444E1,-3.230641174E1
1.232941583E0,3.987873459E1,3.841816711E1,-3.282618713E1
1.242993583E0,4.220881653E1,3.728147125E1,-3.366950989E1
1.253045583E0,4.497916412E1,3.630817413E1,-3.442442322E1
1.263097583E0,4.719231796E1,3.484952545E1,-3.528063965E1
1.273149583E0,4.948539734E1,3.371578217E1,-3.626890564E1
1.283201583E0,5.129939270E1,3.211175537E1,-3.713023376E1
1.293253583E0,5.317458344E1,3.087270164E1,-3.819770813E1
1.303305583E0,5.512088776E1,2.957478523E1,-3.942512512E1
1.313357583E0,5.685398865E1,2.779326057E1,-4.091119385E1
1.323409583E0,5.845310211E1,2.607750511E1,-4.212068176E1
1.333461583E0,5.988283539E1,2.403425407E1,-4.344700623E1
1.343513583E0,6.116231537E1,2.221019173E1,-4.454789734E1
1.353565583E0,6.237871933E1,2.057422066E1,-4.563897705E1
1.363617583E0,6.320586777E1,1.891465950E1,-4.689175415E1
1.373669583E0,6.411083984E1,1.745903206E1,-4.847937012E1
1.383721583E0,6.481884766E1,1.635938454E1,-4.941006470E1
1.393773583E0,6.568666840E1,1.518873405E1,-5.005676270E1
1.403824958E0,6.616825867E1,1.432107735E1,-5.124664307E1
1.413876958E0,6.668342590E1,1.334055519E1,-5.169833374E1
1.423927958E0,6.712262726E1,1.298324394E1,-5.274479675E1
1.433979958E0,6.752601624E1,1.242085266E1,-5.355004883E1
1.444031958E0,6.786060333E1,1.173116875E1,-5.412170410E1
1.454083958E0,6.807971191E1,1.162945366E1,-5.480387878E1
1.464135958E0,6.815972137E1,1.131443977E1,-5.571643066E1
1.474187958E0,6.815897369E1,1.120103073E1,-5.652493286E1
1.484239958E0,6.819358826E1,1.121016884E1,-5.710203552E1
1.494291958E0,6.817671204E1,1.155473518E1,-5.765670776E1
1.504343958E0,6.806341553E1,1.196846008E1,-5.784294128E1
1.514395958E0,6.802171326E1,1.261878967E1,-5.830435181E1
1.524447958E0,6.760292816E1,1.315521049E1,-5.876925659E1
1.534499958E0,6.754232788E1,1.400281715E1,-5.898460388E1
1.544551958E0,6.726741791E1,1.502432823E1,-5.907780457E1
1.554603958E0,6.686715698E1,1.613337517E1,-5.907104492E1
1.564655958E0,6.624192047E1,1.732485390E1,-5.888298035E1
1.574707958E0,6.575268555E1,1.870577431E1,-5.878865051E1
1.584759958E0,6.524994659E1,2.006920433E1,-5.827241516E1
1.594811958E0,6.426709747E1,2.179562950E1,-5.762622070E1
1.604863958E0,6.341961670E1,2.329316521E1,-5.700091553E1
1.614915958E0,6.234194183E1,2.497467613E1,-5.634292603E1
1.624967958E0,6.076533508E1,2.676897621E1,-5.604115295E1
1.635019958E0,5.932556915E1,2.862716484E1,-5.602348328E1
1.645071958E0,5.767674255E1,2.985971260E1,-5.602078247E1
1.655123958E0,5.591707230E1,3.128351402E1,-5.584982300E1
1.665175958E0,5.387693405E1,3.257933807E1,-5.569754028E1
1.675227958E0,5.179791641E1,3.395156097E1,-5.521385193E1
1.685279958E0,4.955584335E1,3.511285400E1,-5.469833374E1
1.695331958E0,4.729962921E1,3.638907623E1,-5.443229675E1
1.705383958E0,4.567296219E1,3.757022095E1,-5.424804688E1
1.715435958E0,4.424341965E1,3.815914917E1,-5.368954468E1
1.725487958E0,4.261784363E1,3.918927765E1,-5.303788757E1
1.735539958E0,4.134484100E1,3.969994354E1,-5.250547791E1
1.745590958E0,4.011602020E1,4.016497803E1,-5.144906616E1
1.755642958E0,3.912073517E1,4.051399231E1,-5.130249023E1
1.765694958E0,3.839439774E1,4.080988312E1,-5.074591064E1
1.775746958E0,3.708169937E1,4.125074005E1,-5.030238342E1
1.785798958E0,3.603740692E1,4.123367310E1,-4.965196228E1
1.795850958E0,3.485648346E1,4.122395325E1,-4.929547119E1
1.805902958E0,3.376832581E1,4.137857819E1,-4.915226746E1
1.815954958E0,3.306101990E1,4.140900421E1,-4.899105835E1
1.826006958E0,3.205200958E1,4.131876373E1,-4.924206543E1
1.836058958E0,3.091601753E1,4.115183258E1,-4.952023315E1
1.846110958E0,2.979464722E1,4.112168884E1,-4.931823730E1
1.856162958E0,2.880960655E1,4.133216095E1,-4.942338562E1
1.866214958E0,2.801030922E1,4.106755829E1,-4.983740234E1
1.876266958E0,2.758506775E1,4.058458710E1,-5.037738037E1
1.886318958E0,2.664675903E1,4.032410431E1,-5.079016113E1
1.896370958E0,2.616191101E1,4.007499695E1,-5.110908508E1
1.906422958E0,2.568996620E1,3.969400787E1,-5.164379883E1
1.916474958E0,2.543619156E1,3.940786743E1,-5.236022949E1
1.926526958E0,2.543140411E1,3.910369110E1,-5.300694275E1
1.936578958E0,2.566139603E1,3.883020782E1,-5.367546082E1
1.946630958E0,2.596104431E1,3.829292297E1,-5.403448486E1
1.956682958E0,2.634846115E1,3.763616180E1,-5.471228027E1
1.966734958E0,2.694559860E1,3.703366852E1,-5.577850342E1
1.976786958E0,2.735718536E1,3.662111664E1,-5.655151367E1
1.986838958E0,2.788761902E1,3.578528595E1,-5.774319458E1
1.996890958E0,2.924091530E1,3.517090607E1,-5.853523254E1
2.006942958E0,3.057050705E1,3.394672394E1,-5.945024109E1
2.016994958E0,3.202705002E1,3.267385101E1,-6.027940369E1
2.027046958E0,3.360678864E1,3.128148842E1,-6.157983398E1
2.037098958E0,3.551031113E1,2.986373329E1,-6.311149597E1
2.047150958E0,3.727819061E1,2.827832985E1,-6.448796082E1
2.057202958E0,3.929655838E1,2.655820274E1,-6.572875977E1
2.067254958E0,4.137393188E1,2.410434914E1,-6.671997070E1
2.077306958E0,4.358036804E1,2.190126610E1,-6.812080383E1
2.087358958E0,4.589477539E1,1.956327248E1,-6.939938354E1
2.097410958E0,4.815845490E1,1.664822578E1,-7.067167664E1
2.107461958E0,5.090450668E1,1.343025398E1,-7.177619934E1
2.117513958E0,5.345810699E1,9.836969376E0,-7.261683655E1
2.127565958E0,5.637337875E1,6.215253830E0,-7.286613464E1
2.137617958E0,5.901593399E1,2.408552170E0,-7.254635620E1
2.147669958E0,6.155928040E1,-1.999641418E0,-7.272404480E1
2.157721958E0,6.413340759E1,-6.085100174E0,-7.246243286E1
2.167773958E0,6.639549255E1,-1.056093025E1,-7.169670105E1
2.177825958E0,6.840861511E1,-1.517291451E1,-7.071504211E1
2.187877958E0,7.025431824E1,-1.984218597E1,-6.967878723E1
2.197929958E0,7.200822449E1,-2.440710831E1,-6.800933838E1
2.207981958E0,7.296662903E1,-2.941672897E1,-6.627653503E1
2.218033958E0,7.392753601E1,-3.450804901E1,-6.371670532E1
2.228085958E0,7.470726013E1,-3.926439667E1,-6.128852844E1
2.238137958E0,7.534162140E1,-4.393396759E1,-5.781019592E1
2.248189958E0,7.543315125E1,-4.881563950E1,-5.413539124E1
2.258241958E0,7.511793518E1,-5.318651581E1,-5.062593079E1
2.268293958E0,7.466142273E1,-5.734020996E1,-4.673425293E1
2.278345958E0,7.368507385E1,-6.099724579E1,-4.316233826E1
2.288397958E0,7.282567596E1,-6.446939850E1,-3.902052307E1
2.298449958E0,7.129777527E1,-6.742696381E1,-3.553199768E1
2.308501958E0,6.961322021E1,-7.008169556E1,-3.167164612E1
2.318553958E0,6.770817566E1,-7.247222137E1,-2.794216919E1
2.328605958E0,6.596908569E1,-7.437562561E1,-2.410777283E1
2.338657958E0,6.361809540E1,-7.610629272E1,-1.984004211E1
2.348709958E0,6.128728485E1,-7.750096130E1,-1.625332642E1
2.358761958E0,5.906983185E1,-7.836476898E1,-1.222857666E1
2.368813958E0,5.665706253E1,-7.873700714E1,-8.087554932E0
2.378865958E0,5.381230545E1,-7.852359772E1,-4.334243774E0
2.388917958E0,5.141976547E1,-7.827713013E1,-3.957366943E-1
2.398970000E0,4.875872040E1,-7.719979095E1,3.427032471E0
2.409022000E0,4.603582764E1,-7.586157227E1,7.229797363E0
2.419074000E0,4.369208527E1,-7.367102051E1,1.111253357E1
2.429126000E0,4.088791275E1,-7.070041656E1,1.536306763E1
2.439178000E0,3.757653046E1,-6.710176849E1,1.959262085E1
2.449230000E0,3.365025711E1,-6.241159058E1,2.366629028E1
2.459282000E0,2.913777733E1,-5.649882507E1,2.658824158E1
2.469334000E0,2.431914520E1,-4.963893127E1,2.855017090E1
2.479385000E0,1.924881172E1,-4.258814240E1,2.863327026E1
2.489437000E0,1.467837906E1,-3.601078033E1,2.714863586E1
2.499489000E0,1.060251617E1,-3.019302368E1,2.366955566E1
2.509541000E0,7.024627686E0,-2.557937050E1,1.956689453E1
2.519593000E0,3.823226929E0,-2.184267807E1,1.464572144E1
2.529645000E0,1.388957977E0,-1.923224258E1,9.160354614E0
2.539697000E0,-7.491149902E-1,-1.753298187E1,2.886566162E0
2.549749000E0,-2.502849579E0,-1.666006851E1,-3.058395386E0
2.559801000E0,-3.574630737E0,-1.662063980E1,-9.320587158E0
2.569853000E0,-4.721534729E0,-1.752153397E1,-1.606233215E1
2.579905000E0,-5.367771149E0,-1.901749229E1,-2.238150024E1
2.589957000E0,-5.938121796E0,-2.130962944E1,-2.847505188E1
2.600009000E0,-5.934612274E0,-2.460699272E1,-3.460350037E1
2.610061000E0,-5.443901062E0,-2.869373512E1,-4.117443848E1
2.620113000E0,-4.307487488E0,-3.369783020E1,-4.739318848E1
2.630165000E0,-2.651451111E0,-3.925624084E1,-5.353959656E1
2.640217000E0,-4.009208679E-1,-4.458946991E1,-5.960513306E1
2.650269000E0,2.317733765E0,-4.950933838E1,-6.525566101E1
2.660321000E0,4.913291931E0,-5.280282593E1,-7.095124817E1
2.670373000E0,7.660467148E0,-5.521542358E1,-7.610556030E1
2.680425000E0,9.503124237E0,-5.655332184E1,-8.143707275E1
2.690477000E0,1.168316841E1,-5.586020660E1,-8.697645569E1
2.700529000E0,1.426101875E1,-5.274915314E1,-9.311363220E1
2.710581000E0,1.511557388E1,-4.677928925E1,-9.995634460E1
2.720633000E0,1.215800095E1,-3.536869812E1,-1.064519501E2
2.730685000E0,-4.606464386E0,-8.699600220E0,-1.144328766E2
2.740737000E0,-1.347298050E1,5.164602280E0,-1.267118378E2
2.750789000E0,-1.572854233E1,9.701784134E0,-1.297704315E2
2.760841000E0,-1.604148865E1,1.129750252E1,-1.298536530E2
2.770893000E0,-1.544686508E1,1.194204521E1,-1.296330109E2
2.780945000E0,-1.535337448E1,1.213129616E1,-1.297257233E2
2.790997000E0,-1.529677963E1,1.248261833E1,-1.296675873E2
2.801049000E0,-1.542679596E1,1.245223999E1,-1.297241974E2
2.811101000E0,-1.542060471E1,1.264628220E1,-1.294581451E2
2.821153000E0,-1.531218338E1,1.248216248E1,-1.293311615E2
2.831205000E0,-1.514863968E1,1.277997017E1,-1.293617401E2
2.841257000E0,-1.512049866E1,1.286661720E1,-1.291526031E2
2.851309000E0,-1.505329132E1,1.282195091E1,-1.290930328E2
2.861361000E0,-1.490735245E1,1.328565788E1,-1.291021271E2
2.871413000E0,-1.474515152E1,1.304924965E1,-1.290861969E2
2.881465000E0,-1.433020020E1,1.315170860E1,-1.290144196E2
2.891517000E0,-1.384721375E1,1.317773628E1,-1.289747162E2
2.901569000E0,-1.332114029E1,1.370663643E1,-1.288771820E2
2.911621000E0,-1.304747772E1,1.390634346E1,-1.290634308E2
2.921673000E0,-1.286264420E1,1.403851128E1,-1.291903534E2
2.931725000E0,-1.259376144E1,1.417844200E1,-1.294939728E2
2.941776000E0,-1.220712280E1,1.417043495E1,-1.293114777E2
2.951828000E0,-1.177670670E1,1.417388725E1,-1.293481903E2
2.961880000E0,-1.157712936E1,1.461723900E1,-1.293485565E2
2.971932000E0,-1.129781723E1,1.483934212E1,-1.296294708E2
2.981984000E0,-1.092447281E1,1.482002831E1,-1.297640533E2
2.992036000E0,-1.040642166E1,1.527742577E1,-1.299849396E2
3.002088000E0,-9.858840942E0,1.538326073E1,-1.300132904E2
3.012140000E0,-9.243858337E0,1.509129524E1,-1.300946198E2
3.022192000E0,-8.748138428E0,1.526318550E1,-1.303231964E2
3.032244000E0,-8.560256958E0,1.553012276E1,-1.302373199E2
3.042296000E0,-8.225063324E0,1.548007011E1,-1.304054413E2
3.052348000E0,-8.004127502E0,1.558270073E1,-1.308585052E2
3.062400000E0,-7.720088959E0,1.547794151E1,-1.310308990E2
3.072452000E0,-7.251045227E0,1.542834282E1,-1.312999420E2
3.082504000E0,-7.311222076E0,1.555100441E1,-1.315510101E2
3.092556000E0,-7.320564270E0,1.555615044E1,-1.320388031E2
3.102608000E0,-7.054878235E0,1.578437233E1,-1.320869293E2
3.112660000E0,-6.483280182E0,1.624631691E1,-1.324239655E2
3.122712000E0,-6.216079712E0,1.617061806E1,-1.327097015E2
3.132764000E0,-5.951728821E0,1.617963600E1,-1.328257904E2
3.142816000E0,-5.503601074E0,1.607461739E1,-1.333526764E2
3.152868000E0,-5.419639587E0,1.613312340E1,-1.337664032E2
3.162920000E0,-5.004154205E0,1.587344933E1,-1.344931793E2
3.172972000E0,-4.843730927E0,1.616109276E1,-1.347974701E2
3.183024000E0,-4.476837158E0,1.632254601E1,-1.358026886E2
3.193076000E0,-4.341373444E0,1.633383751E1,-1.357432098E2
3.203128000E0,-4.265224457E0,1.637056541E1,-1.359013824E2
3.213180000E0,-4.132469177E0,1.633200645E1,-1.363170929E2
3.223232000E0,-3.830268860E0,1.601245689E1,-1.370036774E2
3.233284000E0,-3.731727600E0,1.617864799E1,-1.369091339E2
3.243336000E0,-3.777069092E0,1.598605537E1,-1.376227875E2
3.253388000E0,-3.492492676E0,1.634204674E1,-1.380064850E2
3.263440000E0,-3.257167816E0,1.648528099E1,-1.390284271E2
3.273492000E0,-3.157630920E0,1.662597084E1,-1.399813080E2
3.283544000E0,-2.356285095E0,1.690207100E1,-1.409181366E2
3.293596000E0,-2.055679321E0,1.711090279E1,-1.419695892E2
3.303648000E0,-1.641189575E0,1.746181679E1,-1.434989471E2
3.313700000E0,-1.194694519E0,1.788025093E1,-1.452103729E2
3.323752000E0,-9.107780457E-1,1.825869560E1,-1.464126434E2
3.333804000E0,-3.517112732E-1,1.895534325E1,-1.479290619E2
3.343856000E0,3.512573242E-2,1.929042625E1,-1.494491119E2
3.353908000E0,5.837516785E-1,2.001294899E1,-1.507011871E2
3.363960000E0,9.820671082E-1,2.055939674E1,-1.526601410E2
3.374012000E0,1.726364136E0,2.162523842E1,-1.543190765E2
3.384064000E0,2.193107605E0,2.194508934E1,-1.557625885E2
3.394116000E0,2.738319397E0,2.286693764E1,-1.572031403E2
3.404168208E0,3.144496918E0,2.383219719E1,-1.589132538E2
3.414220208E0,3.686191559E0,2.503191948E1,-1.603004913E2
3.424272208E0,4.616870880E0,2.572435188E1,-1.612211151E2
3.434324208E0,5.617031097E0,2.663297462E1,-1.622616119E2
3.444376208E0,6.525154114E0,2.799780464E1,-1.631062469E2
3.454428208E0,7.708374023E0,2.890651512E1,-1.640391998E2
3.464480208E0,8.417812347E0,3.013412285E1,-1.645709686E2
